-5.2039464e-02
-3.6690319e-02
-2.0194308e-02
-3.0007891e-03
1.2789975e-02
2.3950819e-02
2.9552005e-02
3.1817996e-02
3.4571315e-02
4.0946501e-02
5.1239721e-02
6.4035133e-02
7.6874433e-02
8.5572058e-02
8.5610531e-02
7.5398444e-02
5.8951226e-02
4.3823861e-02
3.5511191e-02
3.5203331e-02
4.0705317e-02
4.8160298e-02
5.4437512e-02
5.7778543e-02
5.7805353e-02
5.5673634e-02
5.3927351e-02
5.5095210e-02
5.9891603e-02
6.7590945e-02
7.5245218e-02
7.7175490e-02
6.8310299e-02
4.8528596e-02
2.2941917e-02
-1.6685915e-03
-2.0770644e-02
-3.3876025e-02
-4.3013952e-02
-5.0622478e-02
-5.8104141e-02
-6.5688823e-02
-7.2557510e-02
-7.7284532e-02
-7.9524786e-02
-8.0096142e-02
-8.0218893e-02
-8.0787639e-02
-8.1277990e-02
-7.9955446e-02
-7.5300003e-02
-6.7007717e-02
-5.5563657e-02
-4.1922281e-02
-2.7453165e-02
-1.2884356e-02
1.2863415e-03
1.4123910e-02
2.5674113e-02
3.7735466e-02
5.2825552e-02
7.1732775e-02
9.3235281e-02
1.1603189e-01
1.3892882e-01
1.6055542e-01
1.7760540e-01
1.8168675e-01
1.6270012e-01
1.1931973e-01
6.3489816e-02
1.2974727e-02
-2.1264217e-02
-3.9487471e-02
-4.6245484e-02
-4.5752278e-02
-4.1678245e-02
-3.6761260e-02
-3.2775699e-02
-3.1463208e-02
-3.5927627e-02
-4.8868617e-02
-6.8276087e-02
-8.7162564e-02
-9.8312027e-02
-9.8027301e-02
-8.7321415e-02
-7.0566360e-02
-5.3363250e-02
-4.0883639e-02
-3.4684993e-02
-3.1836841e-02
-2.8182774e-02
-2.1212911e-02
-1.0640900e-02
2.2434193e-03
1.4818546e-02
2.3137765e-02
2.4662455e-02
2.1333618e-02
1.8360000e-02
2.0458792e-02
2.9227161e-02
4.3327624e-02
6.0158845e-02
7.6712405e-02
9.0204438e-02
9.7646279e-02
9.4291928e-02
7.6240432e-02
4.6140986e-02
1.2886060e-02
-1.4681589e-02
-3.1841680e-02
-3.8770795e-02
-3.8846167e-02
-3.6155337e-02
-3.4638913e-02
-3.6093541e-02
-3.8789639e-02
-3.9517594e-02
-3.5993697e-02
-2.8072453e-02
-1.8187131e-02
-1.0261039e-02
-7.3835023e-03
-9.3688855e-03
-1.2730051e-02
-1.3938604e-02
-1.1674757e-02
-6.9116642e-03
-2.1559438e-03
2.2020386e-04
-2.5928217e-04
-2.0639070e-03
-2.9923815e-03
-1.3015528e-03
3.1642681e-03
9.1390951e-03
1.5376308e-02
2.0861546e-02
2.4742241e-02
2.6722827e-02
2.6960645e-02
2.5879250e-02
2.3974433e-02
2.2045547e-02
2.0572144e-02
1.9061119e-02
1.7649990e-02
1.7150343e-02
1.8116220e-02
2.1015129e-02
2.5077348e-02
2.7379756e-02
2.5469507e-02
1.8810854e-02
7.1776579e-03
-8.9619689e-03
-2.9648454e-02
-5.2159863e-02
-6.9024948e-02
-7.7262876e-02
-7.9430661e-02
-7.9206830e-02
-8.0118403e-02
-8.2321027e-02
-8.3441619e-02
-8.1460178e-02
-7.4868916e-02
-6.3749733e-02
-5.0145357e-02
-3.6053172e-02
-2.2346048e-02
-8.7625377e-03
5.4384863e-03
2.0685633e-02
3.6598488e-02
5.1907793e-02
6.4905289e-02
7.3602496e-02
7.6088619e-02
7.2788284e-02
6.7479693e-02
6.4241430e-02
6.5599003e-02
7.2180623e-02
8.0966174e-02
8.3755358e-02
7.1037766e-02
4.1152120e-02
3.5480652e-03
-2.8075126e-02
-4.5273103e-02
-4.8274888e-02
-4.1998794e-02
-3.2136101e-02
-2.3820178e-02
-1.9556442e-02
-1.8328212e-02
-1.7749489e-02
-1.6146133e-02
-1.2567992e-02
-6.9177795e-03
4.6895179e-04
9.3159817e-03
1.7918065e-02
2.2992230e-02
2.0888040e-02
1.0183332e-02
-6.4244530e-03
-2.3868880e-02
-3.7368582e-02
-4.4531146e-02
-4.5523267e-02
-4.1766661e-02
-3.5354645e-02
-2.8163805e-02
-2.1082246e-02
-1.3609390e-02
-4.6360528e-03
5.3892302e-03
1.5682039e-02
2.5901134e-02
3.5554955e-02
4.5918899e-02
5.9803462e-02
7.7397388e-02
9.1106347e-02
8.7531925e-02
6.1048897e-02
2.2596682e-02
-1.0115622e-02
-2.6840584e-02
-2.8075297e-02
-2.0002620e-02
-9.4416669e-03
-1.8677839e-03
-3.2590601e-04
-4.9273772e-03
-1.3669526e-02
-2.3983040e-02
-3.3561309e-02
-4.0229157e-02
-4.2696518e-02
-4.0977452e-02
-3.5827095e-02
-2.8830292e-02
-2.2048257e-02
-1.7043753e-02
-1.4309955e-02
-1.3074741e-02
-1.1657782e-02
-8.6071781e-03
-3.2143546e-03
4.8210549e-03
1.5010438e-02
2.5833225e-02
3.5069412e-02
3.9998142e-02
3.7898003e-02
2.7071626e-02
8.8700641e-03
-1.2044894e-02
-3.0076762e-02
-4.0530696e-02
-4.1831570e-02
-3.6450767e-02
-2.9026551e-02
-2.3606353e-02
-2.1785215e-02
-2.2332896e-02
-2.2498785e-02
-2.0150039e-02
-1.3263925e-02
-4.0633408e-04
1.7888973e-02
4.0523455e-02
6.6086351e-02
9.1323046e-02
1.0883885e-01
1.0721286e-01
8.0302681e-02
3.6304045e-02
-7.6868702e-03
-3.8612262e-02
-5.3699927e-02
-5.7118070e-02
-5.5163334e-02
-5.3715264e-02
-5.6299920e-02
-6.3030619e-02
-7.0777716e-02
-7.5318434e-02
-7.3616808e-02
-6.4368532e-02
-4.8217939e-02
-2.7432644e-02
-3.9670900e-03
2.1407500e-02
4.8560102e-02
7.7741941e-02
1.0912670e-01
1.4027335e-01
1.6164474e-01
1.5962832e-01
1.3074364e-01
8.8684625e-02
5.3036986e-02
3.4327761e-02
3.0992256e-02
3.6514655e-02
4.3412839e-02
4.2316225e-02
2.5558249e-02
-5.7372002e-03
-4.2364033e-02
-7.5127897e-02
-9.9638769e-02
-1.1751740e-01
-1.3074514e-01
-1.3711580e-01
-1.3632425e-01
-1.3028725e-01
-1.2026583e-01
-1.0801224e-01
-9.4201384e-02
-7.8613242e-02
-6.0984011e-02
-4.0803764e-02
-1.8593556e-02
3.6669502e-03
2.2739381e-02
3.5327297e-02
4.0593640e-02
4.2061692e-02
4.5394281e-02
5.3464952e-02
6.5218388e-02
7.7848320e-02
8.8759569e-02
9.6023737e-02
9.8354808e-02
9.4037606e-02
7.9938911e-02
5.5413899e-02
2.5702251e-02
-1.4748385e-03
-2.0716813e-02
-3.0402670e-02
-3.2722492e-02
-3.1749447e-02
-3.0450900e-02
-3.0541436e-02
-3.2047628e-02
-3.2700092e-02
-3.0249710e-02
-2.4383076e-02
-1.6098822e-02
-6.8734104e-03
9.8394695e-04
4.5846990e-03
2.4397907e-03
-4.4547903e-03
-1.2827868e-02
-1.8050808e-02
-1.7605175e-02
-1.2365221e-02
-4.6847606e-03
2.6350187e-03
7.7258917e-03
1.0990831e-02
1.4182537e-02
1.8029011e-02
2.2523866e-02
2.8396379e-02
3.6122641e-02
4.5144896e-02
5.4407385e-02
6.1706321e-02
6.3667760e-02
5.8543437e-02
4.7933867e-02
3.5147875e-02
2.3178853e-02
1.4007501e-02
7.4549269e-03
1.6555502e-03
-5.6246557e-03
-1.6573087e-02
-3.1424037e-02
-4.8050491e-02
-6.3767842e-02
-7.6795663e-02
-8.6923451e-02
-9.4728443e-02
-1.0041743e-01
-1.0380787e-01
-1.0460959e-01
-1.0283771e-01
-9.8731018e-02
-9.2059199e-02
-8.3172946e-02
-7.4219481e-02
-6.7768287e-02
-6.3858379e-02
-5.9324208e-02
-5.0383862e-02
-3.5289681e-02
-1.5109143e-02
8.1753403e-03
3.3698290e-02
6.1096944e-02
8.9005236e-02
1.1585157e-01
1.4160431e-01
1.6782212e-01
1.9647227e-01
2.2911096e-01
2.6513201e-01
2.9685222e-01
3.0988724e-01
2.9139024e-01
2.3830391e-01
1.6052236e-01
7.4267269e-02
-7.6337075e-03
-7.8426809e-02
-1.3688041e-01
-1.8555260e-01
-2.2695451e-01
-2.6191777e-01
-2.8976017e-01
-3.0888353e-01
-3.1767180e-01
-3.1474651e-01
-2.9947097e-01
-2.7232985e-01
-2.3473409e-01
-1.8858719e-01
-1.3633954e-01
-8.1213586e-02
-2.5897181e-02
2.8362529e-02
8.1638608e-02
1.3401804e-01
1.8530677e-01
2.3649640e-01
2.8857947e-01
3.4077183e-01
3.8966595e-01
4.2707473e-01
4.3892973e-01
4.1328460e-01
3.5107427e-01
2.6597164e-01
1.7557145e-01
9.2423275e-02
2.1305650e-02
-3.8186495e-02
-8.8369299e-02
-1.3105160e-01
-1.6666356e-01
-1.9448550e-01
-2.1387215e-01
-2.2454475e-01
-2.2569944e-01
-2.1740216e-01
-2.0110696e-01
-1.7788025e-01
-1.4935931e-01
-1.1903258e-01
-8.9318364e-02
-6.1348997e-02
-3.7973948e-02
-2.1325474e-02
-1.1094968e-02
-6.6726187e-03
-7.1962261e-03
-1.3290496e-02
-2.4457505e-02
-3.5270171e-02
-4.1726574e-02
-4.3680184e-02
-4.2219338e-02
-3.9257661e-02
-3.5869257e-02
-3.1927690e-02
-2.6207085e-02
-1.6614911e-02
-2.4911626e-03
1.4863281e-02
3.3593612e-02
5.1794781e-02
6.7829035e-02
8.0435820e-02
8.8737849e-02
9.2294484e-02
9.0783930e-02
8.4325241e-02
7.3485790e-02
5.9107394e-02
4.2743281e-02
2.6275179e-02
1.0701937e-02
-4.2657509e-03
-1.9875729e-02
-3.7105105e-02
-5.4481067e-02
-6.8502576e-02
-7.6198652e-02
-7.6634925e-02
-7.1612553e-02
-6.4271763e-02
-5.6625438e-02
-4.9314586e-02
-4.1687168e-02
-3.2711297e-02
-2.2244416e-02
-1.0081275e-02
4.2793413e-03
2.1119840e-02
4.0382364e-02
6.0927976e-02
8.0188339e-02
9.3804328e-02
9.6400658e-02
8.6382823e-02
6.9596956e-02
5.5286056e-02
4.9123745e-02
5.0963937e-02
5.6957300e-02
6.2512372e-02
6.3759757e-02
5.7223028e-02
4.0053221e-02
1.3250909e-02
-1.6166256e-02
-3.9687205e-02
-5.2605323e-02
-5.4741820e-02
-4.9648694e-02
-4.2396216e-02
-3.7132721e-02
-3.6505137e-02
-4.0559194e-02
-4.6388521e-02
-5.0710335e-02
-5.1718265e-02
-4.9133881e-02
-4.4466689e-02
-3.9627500e-02
-3.5209066e-02
-3.1481802e-02
-2.8573468e-02
-2.6105408e-02
-2.4108617e-02
-2.2468271e-02
-2.0796292e-02
-1.9275460e-02
-1.8032903e-02
-1.6931064e-02
-1.6094443e-02
-1.5576527e-02
-1.4772314e-02
-1.2306921e-02
-7.1743584e-03
5.0421892e-04
1.0105884e-02
1.9926031e-02
2.8165113e-02
3.4949949e-02
4.1532577e-02
4.9510972e-02
6.0253597e-02
7.4044861e-02
8.9430985e-02
1.0358239e-01
1.1210949e-01
1.0910909e-01
9.2174343e-02
6.5982288e-02
3.8597511e-02
1.5652009e-02
-1.2967532e-03
-1.3580994e-02
-2.3595454e-02
-3.3296736e-02
-4.3977857e-02
-5.4912035e-02
-6.3692007e-02
-6.8276867e-02
-6.7743694e-02
-6.3271303e-02
-5.7966119e-02
-5.4098151e-02
-5.1571991e-02
-4.9157288e-02
-4.4768582e-02
-3.7055058e-02
-2.6864358e-02
-1.5104513e-02
-2.9182658e-03
8.4545087e-03
1.8786312e-02
2.7644416e-02
3.3949658e-02
3.6219342e-02
3.4187507e-02
2.9991926e-02
2.6206194e-02
2.3810252e-02
2.2337122e-02
2.0811755e-02
1.8495833e-02
1.5054815e-02
1.0227087e-02
4.0273727e-03
-2.6304155e-03
-8.0002159e-03
-1.0687779e-02
-1.0156640e-02
-6.5457438e-03
-1.1130567e-03
4.1542635e-03
7.6896197e-03
9.3977562e-03
1.1222105e-02
1.5673054e-02
2.3584279e-02
3.3980464e-02
4.5247100e-02
5.4869627e-02
5.8958235e-02
5.5183573e-02
4.4546031e-02
2.9027238e-02
1.0340177e-02
-1.2279902e-02
-3.8731914e-02
-6.3117402e-02
-8.0785000e-02
-9.1999951e-02
-9.8695070e-02
-1.0294117e-01
-1.0549785e-01
-1.0612949e-01
-1.0427227e-01
-9.8936639e-02
-8.9512499e-02
-7.6218419e-02
-6.0017650e-02
-4.2726171e-02
-2.6179718e-02
-1.1382966e-02
1.9076241e-03
1.4764104e-02
2.7357428e-02
3.9686758e-02
5.2722719e-02
6.7354722e-02
8.4029797e-02
1.0232403e-01
1.2108945e-01
1.3937618e-01
1.5579598e-01
1.6585822e-01
1.6092313e-01
1.3487176e-01
9.2186497e-02
4.5867951e-02
7.4721404e-03
-1.9182538e-02
-3.5782583e-02
-4.5619892e-02
-5.2593618e-02
-6.0476711e-02
-7.0920116e-02
-8.2020467e-02
-8.9898048e-02
-9.1808182e-02
-8.7256992e-02
-7.7414394e-02
-6.4222354e-02
-4.9616438e-02
-3.5200802e-02
-2.2012731e-02
-1.0464234e-02
-9.4577480e-04
6.1011405e-03
1.0811610e-02
1.4026459e-02
1.7305511e-02
2.1956846e-02
2.7858649e-02
3.3939796e-02
3.8657681e-02
4.0414659e-02
3.8940865e-02
3.5303757e-02
3.0861225e-02
2.7098062e-02
2.4573123e-02
2.2435669e-02
1.9744235e-02
1.5611340e-02
9.5296649e-03
2.1194970e-03
-5.2961119e-03
-1.0836231e-02
-1.3291572e-02
-1.3236944e-02
-1.1883119e-02
-1.0553882e-02
-1.0514482e-02
-1.2863841e-02
-1.8726632e-02
-2.7499308e-02
-3.6540163e-02
-4.3153965e-02
-4.5352748e-02
-4.2856922e-02
-3.7255826e-02
-3.1026487e-02
-2.6543617e-02
-2.4094329e-02
-2.2327536e-02
-1.9692016e-02
-1.5300715e-02
-1.1209281e-02
-1.1277625e-02
-1.6933710e-02
-2.5239346e-02
-3.1112823e-02
-3.1267924e-02
-2.4990731e-02
-1.3428964e-02
1.5240287e-04
1.0177715e-02
1.0249830e-02
-1.6137752e-03
-1.9378893e-02
-3.2688198e-02
-3.3929057e-02
-2.1683992e-02
1.1736846e-03
3.0321074e-02
6.1401938e-02
8.9975299e-02
1.1371294e-01
1.3432705e-01
1.5467771e-01
1.7622759e-01
1.9744629e-01
2.1025109e-01
1.9876631e-01
1.5102090e-01
7.2809560e-02
-1.5397213e-02
-9.2995074e-02
-1.5021402e-01
-1.8722592e-01
-2.0842686e-01
-2.1932672e-01
-2.2424436e-01
-2.2494777e-01
-2.2049535e-01
-2.0856518e-01
-1.8772696e-01
-1.5788329e-01
-1.1902474e-01
-7.1843871e-02
-1.8245926e-02
4.0192422e-02
1.0161964e-01
1.6476960e-01
2.2972546e-01
2.9397005e-01
3.4612697e-01
3.6436523e-01
3.3190731e-01
2.5689636e-01
1.6902816e-01
9.6125592e-02
4.8608327e-02
2.2627864e-02
9.3299666e-03
-2.3841658e-04
-1.3342429e-02
-3.2749445e-02
-5.5205212e-02
-7.4635646e-02
-8.7616968e-02
-9.5190349e-02
-1.0014460e-01
-1.0523852e-01
-1.1291290e-01
-1.2420300e-01
-1.4005612e-01
-1.5740624e-01
-1.6780647e-01
-1.6825359e-01
-1.6072447e-01
-1.4634112e-01
-1.2663658e-01
-1.0249398e-01
-7.5012910e-02
-4.5898826e-02
-1.5552081e-02
1.4675957e-02
4.0670180e-02
5.7532489e-02
6.2068767e-02
5.6197758e-02
4.7102050e-02
4.1712441e-02
4.3092603e-02
5.0035791e-02
5.8394322e-02
6.3709267e-02
6.2689231e-02
5.4412282e-02
4.1176129e-02
2.6712211e-02
1.4051586e-02
5.3769694e-03
2.2326006e-03
5.3086546e-03
1.3561609e-02
2.3653235e-02
3.1374592e-02
3.4847509e-02
3.6722576e-02
4.2328204e-02
5.4968822e-02
7.4362623e-02
9.8853446e-02
1.2305898e-01
1.3484507e-01
1.2236297e-01
8.4910406e-02
3.5424548e-02
-7.6814952e-03
-3.2968827e-02
-4.0408390e-02
-3.5896881e-02
-2.6951451e-02
-1.9640076e-02
-1.6175462e-02
-1.6125551e-02
-1.8198675e-02
-2.3182998e-02
-3.3960581e-02
-4.9930658e-02
-6.6269750e-02
-7.8335498e-02
-8.3329337e-02
-8.1663223e-02
-7.7320411e-02
-7.4796309e-02
-7.6602283e-02
-8.2660157e-02
-9.0102933e-02
-9.4903444e-02
-9.4518849e-02
-8.8152290e-02
-7.6546490e-02
-6.1467960e-02
-4.4588027e-02
-2.7872742e-02
-1.3154458e-02
-6.9502177e-04
1.0774995e-02
2.3661599e-02
4.0690615e-02
6.2982733e-02
8.8951201e-02
1.1535448e-01
1.3805150e-01
1.5260165e-01
1.5519571e-01
1.4351416e-01
1.1843996e-01
8.3944046e-02
4.6644820e-02
1.3503658e-02
-1.1988513e-02
-3.0298123e-02
-4.4398537e-02
-5.6963311e-02
-6.8713732e-02
-7.9286585e-02
-8.7971407e-02
-9.3792655e-02
-9.5843677e-02
-9.3510811e-02
-8.6663915e-02
-7.6184118e-02
-6.2787309e-02
-4.6354812e-02
-2.7198031e-02
-5.7153096e-03
1.7788389e-02
4.2167928e-02
6.5435072e-02
8.5898325e-02
1.0317320e-01
1.1848266e-01
1.3370043e-01
1.4901566e-01
1.6145805e-01
1.6300905e-01
1.4338725e-01
1.0028662e-01
4.3799548e-02
-1.0227875e-02
-5.0243290e-02
-7.3841916e-02
-8.4525230e-02
-8.7262573e-02
-8.6815480e-02
-8.6198505e-02
-8.5495915e-02
-8.3235144e-02
-7.8192334e-02
-6.9032487e-02
-5.4949350e-02
-3.6687486e-02
-1.6451305e-02
1.5194920e-03
1.1124167e-02
8.1702552e-03
-5.0584244e-03
-2.1922886e-02
-3.6067888e-02
-4.3869756e-02
-4.5447121e-02
-4.2537047e-02
-3.6983034e-02
-3.0394604e-02
-2.3329816e-02
-1.6086704e-02
-8.9177904e-03
-1.5528636e-03
6.3932622e-03
1.6257483e-02
3.0470562e-02
5.0568157e-02
7.5904710e-02
1.0424783e-01
1.3307931e-01
1.5804008e-01
1.6893101e-01
1.5314637e-01
1.0820643e-01
4.6867882e-02
-1.2669548e-02
-5.9004946e-02
-9.1621034e-02
-1.1322405e-01
-1.2281244e-01
-1.2045858e-01
-1.0873118e-01
-9.0396134e-02
-6.9200951e-02
-4.7541340e-02
-2.6292748e-02
-6.0155908e-03
1.3415415e-02
2.8251137e-02
3.0375121e-02
1.6442010e-02
-6.5871488e-03
-2.6342959e-02
-3.3819372e-02
-2.7888179e-02
-1.3085402e-02
5.3785035e-03
2.2703176e-02
3.4140232e-02
3.6513765e-02
3.0061063e-02
1.8844725e-02
8.3903355e-03
3.6406671e-03
6.7054613e-03
1.6018323e-02
2.7996676e-02
3.8307555e-02
4.4534891e-02
4.7648044e-02
4.9456439e-02
4.9681907e-02
4.5748990e-02
3.4597360e-02
1.6017763e-02
-4.9704167e-03
-2.1509659e-02
-2.9426189e-02
-2.9084914e-02
-2.4734819e-02
-2.0508295e-02
-1.8750509e-02
-2.0345662e-02
-2.4737088e-02
-3.1441098e-02
-4.0271114e-02
-4.9837080e-02
-5.7123388e-02
-5.9108573e-02
-5.4943125e-02
-4.6442234e-02
-3.6189227e-02
-2.6618779e-02
-2.0419208e-02
-1.8931318e-02
-2.0845064e-02
-2.2837138e-02
-2.0716765e-02
-1.1936343e-02
2.4933581e-03
1.9913576e-02
3.8143538e-02
5.4613162e-02
6.5368808e-02
6.7619863e-02
6.3049334e-02
5.7850855e-02
5.8879189e-02
6.9063073e-02
8.6992894e-02
1.0722599e-01
1.2042900e-01
1.1723781e-01
9.3325958e-02
5.3122600e-02
8.5202762e-03
-2.9367375e-02
-5.5645245e-02
-7.0834545e-02
-7.8633414e-02
-8.2722916e-02
-8.5295063e-02
-8.7317727e-02
-8.8818738e-02
-8.9153825e-02
-8.7385193e-02
-8.2786764e-02
-7.4790519e-02
-6.3580160e-02
-5.0704912e-02
-3.7672670e-02
-2.4565066e-02
-1.1153975e-02
2.6641212e-03
1.6577240e-02
2.8714495e-02
3.7250947e-02
4.1887066e-02
4.3186339e-02
4.2114554e-02
3.9889495e-02
3.6867892e-02
3.2015527e-02
2.4789623e-02
1.6330004e-02
8.5132795e-03
3.1941161e-03
1.5939233e-03
3.1247567e-03
6.5266233e-03
1.0742386e-02
1.4543564e-02
1.8361147e-02
2.3837717e-02
3.2095783e-02
4.3396868e-02
5.5965714e-02
6.4196986e-02
6.0168516e-02
4.0658046e-02
1.1603242e-02
-1.5814791e-02
-3.3140581e-02
-3.8601282e-02
-3.5380158e-02
-2.8456737e-02
-2.2032460e-02
-1.8613048e-02
-1.8487423e-02
-1.9802518e-02
-2.0816684e-02
-2.1114927e-02
-2.1399181e-02
-2.3073346e-02
-2.6423296e-02
-3.0006030e-02
-3.1952372e-02
-3.0953133e-02
-2.6874410e-02
-2.0532048e-02
-1.2989315e-02
-5.2476143e-03
1.9704420e-03
8.1311934e-03
1.3141856e-02
1.8349245e-02
2.5992249e-02
3.7244843e-02
5.1333948e-02
6.6320465e-02
7.9609354e-02
8.6371288e-02
8.0334822e-02
5.9990356e-02
3.1366149e-02
2.7397034e-03
-2.1005950e-02
-4.1204216e-02
-5.9181975e-02
-7.0703602e-02
-7.4258286e-02
-7.2668361e-02
-6.8046891e-02
-6.1723928e-02
-5.3516826e-02
-4.2068342e-02
-2.6442251e-02
-7.5845748e-03
1.1814719e-02
2.8318827e-02
3.8374687e-02
4.0792703e-02
3.7158977e-02
2.9762063e-02
2.0850249e-02
1.2313386e-02
4.6217604e-03
-2.4023753e-03
-9.0477739e-03
-1.5950824e-02
-2.2291903e-02
-2.6565210e-02
-2.7885428e-02
-2.5499340e-02
-2.0661707e-02
-1.8667285e-02
-2.5178149e-02
-3.9174806e-02
-5.2354139e-02
-5.5649768e-02
-4.4903646e-02
-2.1628419e-02
8.5636783e-03
3.7388709e-02
5.6721011e-02
6.2406008e-02
5.7619370e-02
5.0711089e-02
4.8299922e-02
5.3045421e-02
6.3550953e-02
7.4187473e-02
7.6484224e-02
6.3333388e-02
3.6589144e-02
6.5321490e-03
-1.6757781e-02
-2.8585463e-02
-3.0224779e-02
-2.6019113e-02
-2.0168317e-02
-1.5127354e-02
-1.0277566e-02
-3.1417143e-03
7.5546081e-03
2.0996947e-02
3.5115276e-02
4.5421078e-02
4.4678226e-02
2.7130969e-02
-5.3990227e-03
-4.2618787e-02
-7.2943978e-02
-9.0061313e-02
-9.4891853e-02
-9.3339755e-02
-9.2117251e-02
-9.5441085e-02
-1.0205152e-01
-1.0622042e-01
-1.0248059e-01
-8.8955950e-02
-6.7266988e-02
-4.0780663e-02
-1.2816846e-02
1.3879506e-02
3.7445126e-02
5.8502833e-02
7.9490465e-02
1.0211537e-01
1.2670511e-01
1.5253010e-01
1.7746228e-01
1.9542294e-01
1.9520212e-01
1.6732474e-01
1.1363427e-01
4.9276813e-02
-6.6936407e-03
-4.3443493e-02
-6.0879881e-02
-6.4461398e-02
-6.0680459e-02
-5.5576320e-02
-5.4136374e-02
-5.9126658e-02
-6.9443938e-02
-7.9491866e-02
-8.3364914e-02
-7.9647231e-02
-7.0242219e-02
-5.7983992e-02
-4.5064038e-02
-3.1687327e-02
-1.6679173e-02
-4.0224774e-04
1.2372239e-02
1.5404450e-02
8.8605169e-03
1.3960814e-03
1.6477516e-03
1.1234032e-02
2.6218056e-02
4.1215741e-02
5.1587823e-02
5.3394185e-02
4.4422890e-02
2.5998930e-02
3.0279388e-03
-1.7699616e-02
-3.0627040e-02
-3.3997528e-02
-2.9881751e-02
-2.2265027e-02
-1.4997164e-02
-1.0040810e-02
-6.6702444e-03
-2.6799161e-03
3.9151247e-03
1.3900719e-02
2.6307627e-02
3.8956634e-02
5.0472045e-02
6.0237090e-02
6.5367493e-02
6.0125381e-02
4.1386645e-02
1.3759159e-02
-1.2669892e-02
-2.8916505e-02
-3.2417987e-02
-2.6431121e-02
-1.6257202e-02
-7.0579737e-03
-2.0722188e-03
-1.4696435e-03
-2.9481274e-03
-3.4892931e-03
-1.2247662e-03
4.2899720e-03
1.3337757e-02
2.4859455e-02
3.5220681e-02
4.1647775e-02
4.3206967e-02
3.9259823e-02
3.0157864e-02
1.4585354e-02
-6.7481739e-03
-2.5765844e-02
-3.6117997e-02
-3.8401768e-02
-3.6920719e-02
-3.7540773e-02
-4.3815476e-02
-5.4779821e-02
-6.6261767e-02
-7.3095655e-02
-7.2062492e-02
-6.3248165e-02
-4.8693156e-02
-3.1913592e-02
-1.6979573e-02
-6.4774980e-03
-1.4903162e-03
-1.8501591e-03
-5.9811704e-03
-1.1249469e-02
-1.4616769e-02
-1.3656884e-02
-7.4566994e-03
2.9138484e-03
1.4706004e-02
2.4150231e-02
2.8073333e-02
2.6091402e-02
2.0887252e-02
1.6228515e-02
1.4361779e-02
1.5056736e-02
1.6093903e-02
1.4416923e-02
8.0155427e-03
-2.7735781e-03
-1.5158966e-02
-2.4888562e-02
-2.8398532e-02
-2.4523049e-02
-1.4639458e-02
-1.7511201e-03
1.1368547e-02
2.3186209e-02
3.3284148e-02
4.1813803e-02
4.9469841e-02
5.7498584e-02
6.5638994e-02
7.0824462e-02
6.9887232e-02
6.3128247e-02
5.3916569e-02
4.6054208e-02
4.1418036e-02
3.9519833e-02
3.8764059e-02
3.6693807e-02
3.0529997e-02
1.7865522e-02
-4.0042869e-03
-3.5507978e-02
-7.1143193e-02
-1.0200221e-01
-1.2053856e-01
-1.2414743e-01
-1.1567605e-01
-1.0145061e-01
-8.8594236e-02
-8.0559889e-02
-7.6253639e-02
-7.2513497e-02
-6.6113641e-02
-5.5786090e-02
-4.2959049e-02
-3.1053538e-02
-2.3391165e-02
-2.0948657e-02
-2.1726404e-02
-2.2707902e-02
-2.2062728e-02
-1.8826539e-02
-1.2964467e-02
-3.9925259e-03
9.7935124e-03
2.8527508e-02
5.0725478e-02
7.4851592e-02
1.0013751e-01
1.2627171e-01
1.5006507e-01
1.6332629e-01
1.5663215e-01
1.2906002e-01
9.3189061e-02
6.6438455e-02
5.9978963e-02
7.5048680e-02
1.0570874e-01
1.4070240e-01
1.5867839e-01
1.3455274e-01
6.4251955e-02
-2.5580545e-02
-1.0066882e-01
-1.4440093e-01
-1.5916762e-01
-1.5491979e-01
-1.4197305e-01
-1.2946283e-01
-1.2322606e-01
-1.2194862e-01
-1.1880746e-01
-1.0819763e-01
-8.8695569e-02
-6.2223988e-02
-3.3127180e-02
-6.6442215e-03
1.3367137e-02
2.6517891e-02
3.6692789e-02
4.9676516e-02
6.9045686e-02
9.4635354e-02
1.2223161e-01
1.4180183e-01
1.4047192e-01
1.1326953e-01
6.9361344e-02
2.5302061e-02
-6.5262732e-03
-2.2860747e-02
-2.7445165e-02
-2.6953350e-02
-2.7556247e-02
-3.2644138e-02
-4.1394719e-02
-5.0037262e-02
-5.4959696e-02
-5.4095274e-02
-4.7943821e-02
-3.9504086e-02
-3.1280657e-02
-2.3871447e-02
-1.6541057e-02
-8.3750070e-03
5.3022241e-04
8.8845677e-03
1.4387390e-02
1.5214834e-02
1.2451376e-02
1.0470664e-02
1.3938001e-02
2.4129902e-02
3.7563281e-02
4.8839597e-02
5.3746747e-02
4.9867047e-02
3.6729721e-02
1.3537224e-02
-1.6767561e-02
-4.4327763e-02
-6.2418126e-02
-7.0613604e-02
-7.1034962e-02
-6.7499451e-02
-6.3355643e-02
-6.0348396e-02
-5.7772516e-02
-5.2434499e-02
-4.1398492e-02
-2.3872154e-02
-1.1502858e-03
2.3666976e-02
4.6656235e-02
6.3263362e-02
6.7670326e-02
5.5246902e-02
2.8071243e-02
-3.8000098e-03
-2.9497812e-02
-4.3777710e-02
-4.7265483e-02
-4.4150412e-02
-3.9189822e-02
-3.6081816e-02
-3.6162666e-02
-3.7826200e-02
-3.8391379e-02
-3.5353759e-02
-2.7501502e-02
-1.5232433e-02
4.4551480e-04
1.8027788e-02
3.6483022e-02
5.5754433e-02
7.5450605e-02
9.3872310e-02
1.0919753e-01
1.2020590e-01
1.2419806e-01
1.1645381e-01
9.4727178e-02
6.3309360e-02
3.1013529e-02
6.8748065e-03
-5.0351648e-03
-7.4708040e-03
-6.1229438e-03
-6.2564003e-03
-1.0606931e-02
-1.8135534e-02
-2.6394218e-02
-3.4275239e-02
-4.0993323e-02
-4.5465698e-02
-4.7006985e-02
-4.5792016e-02
-4.3544608e-02
-4.2680979e-02
-4.4033401e-02
-4.5681794e-02
-4.4302484e-02
-3.7978565e-02
-2.7684343e-02
-1.6425150e-02
-7.6228057e-03
-4.2213986e-03
-9.0626777e-03
-2.4061210e-02
-4.7410778e-02
-7.2845838e-02
-9.2545406e-02
-1.0114247e-01
-9.7617017e-02
-8.4621941e-02
-6.6009483e-02
-4.5371980e-02
-2.6174386e-02
-9.5790236e-03
5.8031279e-03
2.2089848e-02
4.2351773e-02
6.9387013e-02
1.0335534e-01
1.4134307e-01
1.8130316e-01
2.2352714e-01
2.6268402e-01
2.8062763e-01
2.5594477e-01
1.8590723e-01
9.4488344e-02
1.4322862e-02
-3.7110469e-02
-6.1512261e-02
-6.9224289e-02
-7.0242160e-02
-7.1342706e-02
-7.6717196e-02
-8.7175577e-02
-1.0004217e-01
-1.1090340e-01
-1.1587290e-01
-1.1316334e-01
-1.0291085e-01
-8.7280698e-02
-7.0650250e-02
-5.7411276e-02
-4.9264856e-02
-4.5680601e-02
-4.4542704e-02
-4.2491277e-02
-3.7393714e-02
-2.8831182e-02
-1.7615593e-02
-5.9020887e-03
3.8778109e-03
9.6532848e-03
1.1284422e-02
1.1256848e-02
1.2533920e-02
1.7162212e-02
2.5800822e-02
3.7602825e-02
5.1126558e-02
6.5291669e-02
7.8443736e-02
8.6944301e-02
8.5833514e-02
7.2183998e-02
4.9761003e-02
2.7315495e-02
1.1744352e-02
5.4177784e-03
7.3250788e-03
1.4694189e-02
2.3583851e-02
2.9139151e-02
2.6041957e-02
1.1083886e-02
-1.3008471e-02
-3.8504900e-02
-5.7326118e-02
-6.5109221e-02
-6.1609289e-02
-4.9593098e-02
-3.4040391e-02
-2.0027995e-02
-1.1176719e-02
-7.8406582e-03
-5.9242893e-03
-9.5465797e-06
1.1877738e-02
2.6401095e-02
3.6732677e-02
3.7106413e-02
2.6704872e-02
9.4691301e-03
-1.0743229e-02
-2.9813242e-02
-4.0984807e-02
-4.1361854e-02
-3.3262152e-02
-2.0444166e-02
-7.6417474e-03
6.8657139e-04
1.8769864e-03
-2.7499773e-03
-7.7765810e-03
-7.6099748e-03
2.4874769e-04
1.4566577e-02
3.2206705e-02
4.9407142e-02
6.0709500e-02
6.0129536e-02
4.5591737e-02
2.2003192e-02
-1.0845079e-03
-1.6635269e-02
-2.3299322e-02
-2.2264170e-02
-1.6769748e-02
-1.2871226e-02
-1.5533374e-02
-2.4530955e-02
-3.4703314e-02
-3.9779401e-02
-3.7907214e-02
-3.2095665e-02
-2.6398727e-02
-2.3318417e-02
-2.1493634e-02
-1.7973951e-02
-1.2090954e-02
-4.9667923e-03
1.8037814e-03
5.3485530e-03
1.2302246e-03
-1.2984173e-02
-3.4058739e-02
-5.4053304e-02
-6.5422332e-02
-6.5472518e-02
-5.6163686e-02
-4.2161661e-02
-2.8408473e-02
-1.7360155e-02
-8.7937131e-03
-7.6101441e-04
9.5233723e-03
2.4010945e-02
4.2338766e-02
6.3285290e-02
8.6116542e-02
1.0939892e-01
1.2994153e-01
1.4080004e-01
1.3221127e-01
1.0032562e-01
5.4472047e-02
1.1618307e-02
-1.4532054e-02
-1.9951222e-02
-9.9643982e-03
7.1610029e-03
2.4560439e-02
3.8511077e-02
4.8605518e-02
5.4891938e-02
5.5133433e-02
4.4909700e-02
2.2871340e-02
-5.3201779e-03
-3.0303112e-02
-4.5631973e-02
-5.0862386e-02
-4.9253533e-02
-4.5142621e-02
-4.2543714e-02
-4.4321546e-02
-5.1601719e-02
-6.3124801e-02
-7.6111607e-02
-8.7598768e-02
-9.5554185e-02
-9.9315337e-02
-9.8987781e-02
-9.5277454e-02
-8.8319253e-02
-7.7183645e-02
-6.0821953e-02
-3.8626009e-02
-1.2275302e-02
1.3253439e-02
3.1028251e-02
3.6333444e-02
3.1908378e-02
2.7535585e-02
3.2913735e-02
5.0808787e-02
7.7803683e-02
1.0880184e-01
1.3891866e-01
1.6070077e-01
1.6334167e-01
1.3953658e-01
9.2352060e-02
3.6282575e-02
-1.1737922e-02
-4.2896961e-02
-5.7439270e-02
-6.0156877e-02
-5.6330849e-02
-5.0497189e-02
-4.6076732e-02
-4.5277019e-02
-4.8794516e-02
-5.4589234e-02
-5.9329341e-02
-6.0549645e-02
-5.6778970e-02
-4.8125027e-02
-3.6609392e-02
-2.5178992e-02
-1.5429058e-02
-6.3453300e-03
4.8335320e-03
2.0212741e-02
3.8800981e-02
5.6369749e-02
6.6835740e-02
6.6769922e-02
5.8969663e-02
4.9337222e-02
4.2149647e-02
3.8944473e-02
3.8803565e-02
3.8804158e-02
3.4208324e-02
1.9923529e-02
-3.3353696e-03
-2.7208759e-02
-4.2813771e-02
-4.6416549e-02
-3.9592796e-02
-2.7168786e-02
-1.3798615e-02
-1.6569971e-03
9.0662327e-03
1.9159842e-02
2.8286295e-02
3.2079196e-02
2.4280567e-02
3.7794137e-03
-2.4151562e-02
-5.3278168e-02
-8.0351363e-02
-1.0658735e-01
-1.3120045e-01
-1.4739217e-01
-1.5194786e-01
-1.4681101e-01
-1.3408360e-01
-1.1646649e-01
-9.6018773e-02
-7.3301845e-02
-4.7534881e-02
-1.7329295e-02
1.6538705e-02
4.9943747e-02
7.7702703e-02
9.8743965e-02
1.1777366e-01
1.4134989e-01
1.7355829e-01
2.1376652e-01
2.5916022e-01
3.0460860e-01
3.3361074e-01
3.1958899e-01
2.4973347e-01
1.4291830e-01
3.6168515e-02
-4.3681819e-02
-9.2575500e-02
-1.1959607e-01
-1.3577438e-01
-1.5081330e-01
-1.6974532e-01
-1.9055194e-01
-2.0665243e-01
-2.1241669e-01
-2.0662591e-01
-1.9130216e-01
-1.6927532e-01
-1.4289740e-01
-1.1386001e-01
-8.2661020e-02
-4.9242392e-02
-1.4751489e-02
1.9166211e-02
5.0584388e-02
7.8338390e-02
1.0286989e-01
1.2463726e-01
1.4323466e-01
1.5668880e-01
1.6208510e-01
1.5699568e-01
1.4115778e-01
1.1707812e-01
8.9522390e-02
6.3905564e-02
4.3078010e-02
2.6290610e-02
1.0767435e-02
-5.8179355e-03
-2.3231187e-02
-3.9408904e-02
-5.2606065e-02
-6.1811707e-02
-6.6652810e-02
-6.7812886e-02
-6.6914237e-02
-6.5156230e-02
-6.2710516e-02
-5.8880676e-02
-5.3192871e-02
-4.5896327e-02
-3.7306184e-02
-2.9741094e-02
-2.7212534e-02
-3.1441861e-02
-4.0939758e-02
-5.2293102e-02
-6.1252776e-02
-6.5372686e-02
-6.4857839e-02
-6.1224276e-02
-5.6534452e-02
-5.1577045e-02
-4.4191390e-02
-3.1166556e-02
-1.1673487e-02
1.2725226e-02
3.9770862e-02
6.7280606e-02
9.3032638e-02
1.1568693e-01
1.3556736e-01
1.5374812e-01
1.7131674e-01
1.8868145e-01
2.0400400e-01
2.0957876e-01
1.9417933e-01
1.5389653e-01
9.7500930e-02
3.9701363e-02
-8.2435440e-03
-4.2707782e-02
-6.5999314e-02
-8.2223694e-02
-9.5225835e-02
-1.0645630e-01
-1.1457523e-01
-1.1830176e-01
-1.1799007e-01
-1.1648000e-01
-1.1743642e-01
-1.2065909e-01
-1.2086704e-01
-1.1143958e-01
-8.9167526e-02
-5.5355225e-02
-1.3707721e-02
3.1391807e-02
7.3445922e-02
1.0156427e-01
1.0402397e-01
7.9478259e-02
4.2723533e-02
1.3094410e-02
-9.2790483e-05
7.8515234e-04
8.6719294e-03
1.5389138e-02
1.2162746e-02
-5.5428132e-03
-3.2657487e-02
-5.7860868e-02
-7.3281000e-02
-7.7703610e-02
-7.3956846e-02
-6.6870248e-02
-6.0985953e-02
-5.8372751e-02
-5.7965443e-02
-5.6654035e-02
-5.1229245e-02
-3.9739262e-02
-2.2317426e-02
-7.6047396e-04
2.3018431e-02
4.7310516e-02
7.1036906e-02
9.4593955e-02
1.1876928e-01
1.4333162e-01
1.6696736e-01
1.8549737e-01
1.9004673e-01
1.7178089e-01
1.3090596e-01
7.8179791e-02
2.6463671e-02
-1.6911007e-02
-5.2336499e-02
-8.1618326e-02
-1.0184426e-01
-1.1170172e-01
-1.1492151e-01
-1.1615148e-01
-1.1815608e-01
-1.1978845e-01
-1.1696613e-01
-1.0604378e-01
-8.6503075e-02
-6.0678444e-02
-3.2700467e-02
-7.0488646e-03
1.4098285e-02
2.9694746e-02
3.7927033e-02
3.6947152e-02
2.6865219e-02
1.1565918e-02
-3.1374746e-03
-1.2960140e-02
-1.6440625e-02
-1.5090598e-02
-1.1573799e-02
-7.5928859e-03
-3.9313123e-03
-1.7617146e-04
5.4428017e-03
1.4403269e-02
2.5770075e-02
3.7362028e-02
4.8038434e-02
5.8108878e-02
6.9231048e-02
8.3063911e-02
9.8890060e-02
1.1222602e-01
1.1660138e-01
1.0663279e-01
8.1151099e-02
4.5745703e-02
1.0118835e-02
-1.8098563e-02
-3.5649135e-02
-4.3327253e-02
-4.4976837e-02
-4.4026822e-02
-4.2225398e-02
-4.0269552e-02
-3.8022789e-02
-3.5680236e-02
-3.4049915e-02
-3.3309938e-02
-3.2587114e-02
-3.0691732e-02
-2.6473945e-02
-1.9743648e-02
-1.1785917e-02
-4.4234373e-03
1.1659559e-04
-5.1735933e-04
-7.7431143e-03
-2.1064669e-02
-3.7860813e-02
-5.4787223e-02
-6.8599628e-02
-7.7400630e-02
-8.1734747e-02
-8.3004279e-02
-8.1963344e-02
-7.8744157e-02
-7.3319648e-02
-6.5547781e-02
-5.5493241e-02
-4.3577506e-02
-3.0196375e-02
-1.5584909e-02
-4.1088910e-05
1.5863773e-02
3.2048622e-02
4.8725557e-02
6.5420847e-02
8.2034336e-02
9.9419396e-02
1.1876025e-01
1.4093724e-01
1.6570322e-01
1.9053109e-01
2.0788298e-01
2.0595488e-01
1.7703414e-01
1.2586713e-01
6.7477339e-02
1.6595471e-02
-1.9926752e-02
-4.2683318e-02
-5.5834615e-02
-6.4305307e-02
-7.1836341e-02
-7.9750530e-02
-8.7019820e-02
-9.2193328e-02
-9.4242535e-02
-9.2183169e-02
-8.5837142e-02
-7.5979531e-02
-6.3781693e-02
-5.1049996e-02
-3.9516230e-02
-2.9859802e-02
-2.2836219e-02
-1.9790794e-02
-2.1932870e-02
-2.8765762e-02
-3.7059299e-02
-4.2768220e-02
-4.3376668e-02
-3.8849057e-02
-3.1335426e-02
-2.3549019e-02
-1.7205886e-02
-1.2722964e-02
-9.1144173e-03
-3.7019661e-03
6.1643987e-03
2.1002738e-02
3.9665724e-02
5.9635817e-02
7.8290086e-02
9.4855021e-02
1.0946655e-01
1.2150883e-01
1.2797767e-01
1.2378697e-01
1.0629919e-01
7.9274179e-02
5.0623720e-02
2.6944899e-02
1.0744386e-02
1.2291695e-03
-4.0837383e-03
-9.0629092e-03
-1.8444228e-02
-3.4895636e-02
-5.5794114e-02
-7.4531635e-02
-8.5198385e-02
-8.6047297e-02
-7.8911784e-02
-6.6786375e-02
-5.4295021e-02
-4.6317244e-02
-4.3752598e-02
-4.4295116e-02
-4.5133979e-02
-4.2867049e-02
-3.6388831e-02
-2.8524472e-02
-2.2254652e-02
-2.1983371e-02
-2.8313912e-02
-3.2938278e-02
-3.0791149e-02
-2.3209739e-02
-1.2932305e-02
-3.5403444e-03
2.8033723e-03
5.2386356e-03
4.7341599e-03
4.9872959e-03
1.0036327e-02
2.1818026e-02
3.9117753e-02
5.8111371e-02
7.2554845e-02
7.6095528e-02
6.7189291e-02
5.0679654e-02
3.4259906e-02
2.3892345e-02
2.1406564e-02
2.4324674e-02
2.8452336e-02
3.0785376e-02
3.0642758e-02
2.9033931e-02
2.7251168e-02
2.6078547e-02
2.5168487e-02
2.3278200e-02
1.9358608e-02
1.2878429e-02
3.3603909e-03
-9.6704515e-03
-2.6132488e-02
-4.4545811e-02
-6.2452725e-02
-7.7624552e-02
-8.8402530e-02
-9.4409773e-02
-9.6167306e-02
-9.4031082e-02
-8.9188977e-02
-8.3675716e-02
-7.8597364e-02
-7.3661150e-02
-6.7123859e-02
-5.6684445e-02
-4.1430519e-02
-2.1911107e-02
5.6785701e-04
2.3996503e-02
4.5876366e-02
6.3273404e-02
7.4070513e-02
7.9516703e-02
8.3785662e-02
9.0924346e-02
1.0322153e-01
1.2061549e-01
1.4114605e-01
1.6191482e-01
1.7754719e-01
1.7895220e-01
1.5736796e-01
1.1235998e-01
5.5042356e-02
1.9693147e-03
-3.5669867e-02
-5.6752739e-02
-6.5508191e-02
-6.7674023e-02
-6.8907127e-02
-7.3172693e-02
-8.1771867e-02
-9.2309263e-02
-9.9921822e-02
-1.0039668e-01
-9.2575990e-02
-7.8351528e-02
-6.1052089e-02
-4.3933651e-02
-2.9105272e-02
-1.7531359e-02
-9.5653228e-03
-5.2324682e-03
-4.2098881e-03
-5.3348853e-03
-6.4616644e-03
-5.6290975e-03
-2.4610314e-03
1.8178006e-03
4.6679991e-03
2.8694010e-03
-5.3758117e-03
-1.8121384e-02
-3.0106223e-02
-3.6601589e-02
-3.5780679e-02
-2.8259387e-02
-1.6261261e-02
-2.6433543e-03
9.3685423e-03
1.6686245e-02
1.8308791e-02
1.5998803e-02
1.3718127e-02
1.6356486e-02
2.7139654e-02
4.6245417e-02
7.1939127e-02
1.0068067e-01
1.2373541e-01
1.2779589e-01
1.0454990e-01
6.0483460e-02
1.3778102e-02
-2.0004893e-02
-3.5894105e-02
-3.6212487e-02
-2.6173325e-02
-1.1924942e-02
1.5240708e-03
1.0460560e-02
1.1745233e-02
3.9399992e-03
-1.1668638e-02
-3.1275942e-02
-4.9856363e-02
-6.3174455e-02
-7.0107600e-02
-7.2460585e-02
-7.3628689e-02
-7.7256256e-02
-8.4471044e-02
-9.3223698e-02
-1.0003228e-01
-1.0231894e-01
-9.9285287e-02
-9.1408423e-02
-7.9586085e-02
-6.3686487e-02
-4.3312177e-02
-1.8413883e-02
1.0698136e-02
4.2718747e-02
7.6737663e-02
1.1330243e-01
1.5373293e-01
1.9779185e-01
2.4339690e-01
2.8835458e-01
3.2599896e-01
3.3994267e-01
3.1106365e-01
2.3588304e-01
1.3536939e-01
3.9469561e-02
-3.3801245e-02
-8.3598407e-02
-1.1723712e-01
-1.3912522e-01
-1.4959528e-01
-1.4954122e-01
-1.4205655e-01
-1.3177423e-01
-1.2235838e-01
-1.1545060e-01
-1.1083942e-01
-1.0589924e-01
-9.8251608e-02
-8.7713626e-02
-7.5702397e-02
-6.5311338e-02
-5.9389872e-02
-5.8453221e-02
-6.1011151e-02
-6.4187410e-02
-6.4831102e-02
-6.1357711e-02
-5.4264555e-02
-4.5252319e-02
-3.6463094e-02
-2.9190912e-02
-2.2502727e-02
-1.3904190e-02
-1.3141166e-03
1.6032843e-02
3.7028732e-02
5.8591030e-02
7.7587307e-02
9.2332462e-02
1.0291038e-01
1.1044178e-01
1.1668530e-01
1.2289113e-01
1.2703214e-01
1.2473873e-01
1.1269898e-01
9.0841724e-02
6.2776543e-02
3.4302990e-02
9.9230270e-03
-8.7034479e-03
-2.2137947e-02
-3.2925901e-02
-4.3122485e-02
-5.2637065e-02
-6.0316800e-02
-6.5084422e-02
-6.6486402e-02
-6.4969394e-02
-6.1741826e-02
-5.7909250e-02
-5.4164441e-02
-5.0815435e-02
-4.7674989e-02
-4.4135210e-02
-3.9502609e-02
-3.3552089e-02
-2.6316094e-02
-1.8112475e-02
-9.8498289e-03
-2.6307660e-03
2.1953162e-03
3.5459226e-03
2.0815061e-03
2.4400582e-04
8.2120339e-04
5.3886060e-03
1.3449719e-02
2.3306077e-02
3.3097596e-02
4.0751327e-02
4.4608254e-02
4.4607574e-02
4.2349989e-02
4.0116180e-02
4.0024136e-02
4.2728664e-02
4.7087401e-02
5.1430015e-02
5.3815214e-02
5.2451172e-02
4.6340264e-02
3.5522912e-02
2.1251872e-02
5.5074030e-03
-1.0205001e-02
-2.5317606e-02
-3.9187410e-02
-5.1105513e-02
-6.0691140e-02
-6.7539836e-02
-7.1343003e-02
-7.2058651e-02
-6.9613856e-02
-6.4208962e-02
-5.6847321e-02
-4.8906534e-02
-4.1797227e-02
-3.6660682e-02
-3.3657413e-02
-3.1735848e-02
-2.9440758e-02
-2.5656180e-02
-1.9453447e-02
-1.0404533e-02
1.7112557e-03
1.6961594e-02
3.4128786e-02
5.0846086e-02
6.3778980e-02
6.9703095e-02
6.8014933e-02
6.1399636e-02
5.3776849e-02
4.7652110e-02
4.3794793e-02
4.2204912e-02
4.2435630e-02
4.3735697e-02
4.5533965e-02
4.6969152e-02
4.5634404e-02
3.8702604e-02
2.5582305e-02
8.9814525e-03
-6.4981804e-03
-1.7110116e-02
-2.1858450e-02
-2.2245762e-02
-2.1775778e-02
-2.4617452e-02
-3.2083608e-02
-4.1615463e-02
-4.9078984e-02
-5.1481810e-02
-4.8173129e-02
-4.0828785e-02
-3.3321836e-02
-2.9771175e-02
-3.1691121e-02
-3.6368411e-02
-3.8811413e-02
-3.5542786e-02
-2.5669420e-02
-1.0710051e-02
6.7581791e-03
2.4633997e-02
4.1022375e-02
5.4592279e-02
6.4743990e-02
6.9498555e-02
6.5076112e-02
5.0367664e-02
2.8195506e-02
2.0732247e-03
-2.5159103e-02
-5.4027481e-02
-8.2936717e-02
-1.0334395e-01
-1.1104762e-01
-1.0852164e-01
-9.9152653e-02
-8.6717490e-02
-7.3401856e-02
-5.9987386e-02
-4.5881029e-02
-2.8732633e-02
-7.9569660e-03
1.3974813e-02
3.3354504e-02
4.7570661e-02
5.6795761e-02
6.3534878e-02
7.0460718e-02
7.8007118e-02
8.5016046e-02
9.0455393e-02
9.3773764e-02
9.5006315e-02
9.3959644e-02
8.9600705e-02
7.9914508e-02
6.3430799e-02
4.1993000e-02
2.0209075e-02
2.3463041e-03
-9.5012225e-03
-1.5219469e-02
-1.6066202e-02
-1.4834515e-02
-1.5734899e-02
-2.1659502e-02
-3.1090292e-02
-3.8878452e-02
-4.0138273e-02
-3.3036853e-02
-1.8372789e-02
9.2800236e-04
2.0301062e-02
3.6144166e-02
4.6866064e-02
5.2066187e-02
5.1905684e-02
4.6558883e-02
3.5922595e-02
1.9807082e-02
2.0830703e-04
-1.8863427e-02
-3.4543134e-02
-4.5779595e-02
-5.3384225e-02
-5.9501732e-02
-6.5517087e-02
-7.1494431e-02
-7.6684541e-02
-7.9722820e-02
-7.9762517e-02
-7.6998789e-02
-7.2182779e-02
-6.6364745e-02
-6.0261462e-02
-5.3796073e-02
-4.6479896e-02
-3.7862699e-02
-2.7839132e-02
-1.6634737e-02
-4.4115128e-03
8.4402607e-03
2.0617931e-02
2.9979447e-02
3.4257450e-02
3.2074275e-02
2.4081260e-02
1.3638086e-02
5.3892398e-03
1.8976252e-03
3.5706503e-03
9.5961118e-03
1.7264916e-02
2.4083315e-02
2.9544705e-02
3.4180021e-02
3.8299002e-02
4.2183287e-02
4.6140374e-02
5.0526233e-02
5.6582514e-02
6.5369183e-02
7.5918572e-02
8.4005232e-02
8.3251678e-02
6.8810603e-02
4.0981736e-02
5.8117581e-03
-2.8345437e-02
-5.5013060e-02
-7.1249657e-02
-7.7801669e-02
-7.8008293e-02
-7.4611895e-02
-6.8426902e-02
-5.9171454e-02
-4.6761962e-02
-3.2057402e-02
-1.5966903e-02
1.6248251e-03
2.1439722e-02
4.3506323e-02
6.6171624e-02
8.3433310e-02
8.5504496e-02
6.6708389e-02
3.2367197e-02
-3.6561413e-03
-2.8961462e-02
-3.9130715e-02
-3.6230124e-02
-2.5479105e-02
-1.2567756e-02
-8.9036536e-04
9.2090419e-03
1.8717522e-02
2.7638872e-02
3.5803958e-02
4.4520302e-02
5.5574752e-02
7.0690156e-02
8.9936368e-02
1.0932571e-01
1.1929762e-01
1.0848240e-01
7.4292634e-02
2.7338796e-02
-1.6970342e-02
-4.9531557e-02
-6.9590052e-02
-8.0190262e-02
-8.5786677e-02
-9.1005351e-02
-9.7716992e-02
-1.0419789e-01
-1.0718110e-01
-1.0425900e-01
-9.5624184e-02
-8.3619324e-02
-6.9647658e-02
-5.2760777e-02
-3.1979701e-02
-7.5940371e-03
1.8750380e-02
4.2728020e-02
5.7253136e-02
5.7748884e-02
4.6214212e-02
2.8112670e-02
8.6875722e-03
-1.0450886e-02
-2.8065250e-02
-3.9130402e-02
-4.1586766e-02
-3.7476148e-02
-2.9597838e-02
-2.1470934e-02
-1.4776476e-02
-8.8355652e-03
-1.6799520e-03
8.9454761e-03
2.3718267e-02
4.1589036e-02
6.0095324e-02
7.5279718e-02
8.3082003e-02
8.1572341e-02
7.2145635e-02
5.8813499e-02
4.5198536e-02
3.3265739e-02
2.3196272e-02
1.3282476e-02
2.7763096e-03
-7.5609845e-03
-1.7033115e-02
-2.5506426e-02
-3.4599672e-02
-4.6891289e-02
-6.3161296e-02
-8.1038906e-02
-9.6401346e-02
-1.0566556e-01
-1.0764672e-01
-1.0435074e-01
-9.8312069e-02
-9.1142085e-02
-8.3994461e-02
-7.6819695e-02
-6.8968611e-02
-5.9465514e-02
-4.6665982e-02
-2.9355364e-02
-7.2562540e-03
1.9122995e-02
4.8214037e-02
7.7326143e-02
1.0381794e-01
1.2681173e-01
1.4798164e-01
1.7008534e-01
1.9413118e-01
2.1765595e-01
2.3180057e-01
2.2339991e-01
1.8671318e-01
1.3023996e-01
7.0893727e-02
2.2697214e-02
-9.9487801e-03
-2.9580838e-02
-4.1524579e-02
-5.1287497e-02
-6.1237657e-02
-7.0906234e-02
-7.9371134e-02
-8.6948052e-02
-9.4793203e-02
-1.0243948e-01
-1.0752096e-01
-1.0762004e-01
-1.0182436e-01
-9.1356668e-02
-7.8900894e-02
-6.6658284e-02
-5.5602054e-02
-4.6191667e-02
-3.8549239e-02
-3.2298655e-02
-2.6438368e-02
-1.9953736e-02
-1.2154291e-02
-2.3337909e-03
9.6328749e-03
2.2939462e-02
3.5828185e-02
4.6068327e-02
5.2387779e-02
5.5532930e-02
5.7727538e-02
6.0644253e-02
6.5184414e-02
7.1467724e-02
7.7698241e-02
8.0132486e-02
7.3655805e-02
5.4855643e-02
2.6500857e-02
-2.9908743e-03
-2.5462741e-02
-3.7759029e-02
-4.2162083e-02
-4.3165380e-02
-4.3996487e-02
-4.6007909e-02
-4.9065073e-02
-5.2240954e-02
-5.4545022e-02
-5.5225431e-02
-5.3559756e-02
-4.8680628e-02
-4.0851404e-02
-3.1756686e-02
-2.3395039e-02
-1.7509910e-02
-1.4984633e-02
-1.5277394e-02
-1.6950497e-02
-1.8824594e-02
-2.0131393e-02
-2.0437032e-02
-1.9547460e-02
-1.7525845e-02
-1.4788518e-02
-1.1277124e-02
-6.1167103e-03
1.8088509e-03
1.2653938e-02
2.5399783e-02
3.8584844e-02
5.0316178e-02
5.9424754e-02
6.5978951e-02
6.9972833e-02
7.1058448e-02
6.9078099e-02
6.3525090e-02
5.2831809e-02
3.6559433e-02
1.7437489e-02
-2.3478765e-04
-1.3064585e-02
-1.9635730e-02
-2.0513385e-02
-1.7117438e-02
-1.1169935e-02
-4.6729842e-03
2.0059211e-03
1.0712797e-02
2.4058871e-02
4.3403794e-02
6.7882987e-02
9.4856163e-02
1.1868226e-01
1.2928639e-01
1.1633063e-01
7.9885009e-02
3.1889955e-02
-1.5086573e-02
-5.5182592e-02
-9.0253208e-02
-1.2256081e-01
-1.4790870e-01
-1.6264777e-01
-1.6814751e-01
-1.6749418e-01
-1.6351120e-01
-1.5731857e-01
-1.4794649e-01
-1.3328067e-01
-1.1184344e-01
-8.4100362e-02
-5.1981396e-02
-1.8132886e-02
1.4286767e-02
4.2936327e-02
6.7353128e-02
8.8534134e-02
1.0789914e-01
1.2592821e-01
1.4128473e-01
1.5079994e-01
1.5154305e-01
1.4281982e-01
1.2648108e-01
1.0583302e-01
8.4160759e-02
6.4347065e-02
4.8375468e-02
3.6110347e-02
2.5395379e-02
1.4878004e-02
4.5536660e-03
-5.6599727e-03
-1.5762556e-02
-2.6198180e-02
-3.8265973e-02
-5.2621012e-02
-6.7319873e-02
-7.8573488e-02
-8.3570591e-02
-8.2171236e-02
-7.6204932e-02
-6.8213856e-02
-6.0943627e-02
-5.6321857e-02
-5.4851754e-02
-5.5018643e-02
-5.3926609e-02
-4.9733893e-02
-4.2528595e-02
-3.4050700e-02
-2.6838239e-02
-2.1896565e-02
-1.7227137e-02
-1.0042135e-02
1.3448976e-03
1.7118477e-02
3.4860588e-02
5.1764645e-02
6.6594466e-02
7.9183755e-02
9.0265960e-02
1.0017047e-01
1.0792346e-01
1.1118770e-01
1.0720813e-01
9.4700574e-02
7.4861182e-02
5.0859400e-02
2.6966503e-02
6.6908948e-03
-8.9136420e-03
-2.0764126e-02
-3.0946398e-02
-4.0798953e-02
-4.9492255e-02
-5.5379709e-02
-5.7822611e-02
-5.7133413e-02
-5.3485174e-02
-4.6772951e-02
-3.7150437e-02
-2.5107460e-02
-1.1906138e-02
1.1157268e-04
8.5107503e-03
1.0559118e-02
3.5220644e-03
-1.1734876e-02
-2.9650621e-02
-4.4220882e-02
-5.2330825e-02
-5.4277739e-02
-5.2465405e-02
-4.9474624e-02
-4.7773424e-02
-4.9051009e-02
-5.2765940e-02
-5.5941643e-02
-5.4846288e-02
-4.7241627e-02
-3.3333029e-02
-1.5267698e-02
4.0648817e-03
2.2197790e-02
3.7803100e-02
5.0829761e-02
6.2901982e-02
7.6609114e-02
9.2688539e-02
1.1043162e-01
1.2884745e-01
1.4464170e-01
1.5234120e-01
1.4595146e-01
1.2244229e-01
8.5946954e-02
4.5988651e-02
1.1146124e-02
-1.4739796e-02
-3.2828584e-02
-4.7022006e-02
-5.9754849e-02
-7.1437997e-02
-8.1669544e-02
-8.9615564e-02
-9.5193362e-02
-9.8857214e-02
-1.0011944e-01
-9.7229827e-02
-8.8922861e-02
-7.5362865e-02
-5.8005383e-02
-3.9388980e-02
-2.1963894e-02
-7.4652474e-03
3.3767427e-03
1.0952991e-02
1.6344661e-02
2.0674056e-02
2.4909532e-02
3.0177930e-02
3.7182466e-02
4.5317653e-02
5.1854627e-02
5.3018910e-02
4.7928618e-02
4.0337397e-02
3.5561957e-02
3.6515612e-02
4.2097361e-02
4.9132417e-02
5.4912476e-02
5.6074114e-02
4.9057222e-02
3.4115172e-02
1.4522873e-02
-6.8180520e-03
-2.7958435e-02
-5.0458433e-02
-7.4305978e-02
-9.2636998e-02
-1.0136248e-01
-1.0160239e-01
-9.5558878e-02
-8.6396026e-02
-7.5390088e-02
-6.1177266e-02
-4.1726162e-02
-1.6213492e-02
1.3771758e-02
4.5193196e-02
7.4404306e-02
9.6467171e-02
1.0570321e-01
9.9434825e-02
8.1239745e-02
5.9575099e-02
4.2568999e-02
3.4225869e-02
3.4246567e-02
3.9224584e-02
4.5200791e-02
4.9064678e-02
4.7756222e-02
3.8560309e-02
2.0784644e-02
-2.1028656e-03
-2.3222047e-02
-3.6766339e-02
-4.0992623e-02
-3.7698119e-02
-3.0370217e-02
-2.3084281e-02
-1.9695914e-02
-2.1976211e-02
-2.7929110e-02
-3.3135302e-02
-3.4145192e-02
-3.0175732e-02
-2.2844073e-02
-1.4813297e-02
-8.0980169e-03
-3.7999885e-03
-1.9285822e-03
-1.1350528e-03
-5.8967089e-04
-5.8821861e-04
-1.3885164e-03
-3.3832063e-03
-6.5585175e-03
-1.0537891e-02
-1.5976322e-02
-2.3703251e-02
-3.3615936e-02
-4.4754463e-02
-5.4801794e-02
-6.1593346e-02
-6.5601173e-02
-6.8787296e-02
-7.2835804e-02
-7.8210493e-02
-8.3329707e-02
-8.5962092e-02
-8.4879498e-02
-8.0405485e-02
-7.3893322e-02
-6.6618812e-02
-5.8361625e-02
-4.6909603e-02
-3.0101241e-02
-7.6072623e-03
1.9070651e-02
4.7079669e-02
7.2687222e-02
9.2830551e-02
1.0694466e-01
1.1692085e-01
1.2565951e-01
1.3563853e-01
1.4809173e-01
1.6257455e-01
1.7726108e-01
1.8812933e-01
1.8664737e-01
1.6435989e-01
1.2252625e-01
7.2080237e-02
2.5049679e-02
-1.1374862e-02
-3.6546422e-02
-5.3487564e-02
-6.5320301e-02
-7.4512425e-02
-8.1230967e-02
-8.3023519e-02
-7.7481969e-02
-6.4718727e-02
-4.6775251e-02
-2.6683722e-02
-8.4047564e-03
4.1012152e-03
8.1746741e-03
3.8627605e-03
-6.0226971e-03
-1.6767103e-02
-2.4873681e-02
-2.9825726e-02
-3.2435251e-02
-3.3596122e-02
-3.3034145e-02
-2.9797206e-02
-2.3990729e-02
-1.7259445e-02
-1.2043662e-02
-9.5189381e-03
-8.3528336e-03
-6.1314859e-03
-1.1848242e-03
7.0768942e-03
1.7993828e-02
2.9740199e-02
4.0402806e-02
4.7734462e-02
4.8638108e-02
4.1023921e-02
2.6508466e-02
1.0024083e-02
-3.6578747e-03
-1.2045118e-02
-1.5625847e-02
-1.6856566e-02
-1.8070994e-02
-2.0817542e-02
-2.5461698e-02
-3.0967292e-02
-3.5955973e-02
-3.9579842e-02
-4.1217334e-02
-4.0290659e-02
-3.6475402e-02
-3.0373867e-02
-2.3267435e-02
-1.6038412e-02
-9.0069370e-03
-1.9343678e-03
5.7993495e-03
1.4808284e-02
2.5630390e-02
3.8644576e-02
5.3404525e-02
6.8410239e-02
8.1936556e-02
9.1030114e-02
9.0697448e-02
7.8690637e-02
5.8107552e-02
3.3620479e-02
8.7038192e-03
-1.6503259e-02
-4.1115530e-02
-5.9812259e-02
-7.0426405e-02
-7.5184395e-02
-7.6428522e-02
-7.5967029e-02
-7.3378185e-02
-6.7463370e-02
-5.7898157e-02
-4.4545245e-02
-2.8594032e-02
-1.2853722e-02
-7.6726470e-05
8.1358956e-03
1.1568292e-02
1.2084534e-02
1.2644360e-02
1.4900103e-02
1.8756428e-02
2.2814526e-02
2.5139697e-02
2.4042939e-02
1.8296424e-02
8.2228321e-03
-3.6807474e-03
-1.3723494e-02
-1.8664078e-02
-1.7762162e-02
-1.2454884e-02
-4.5695934e-03
3.5685704e-03
9.3536286e-03
1.0449659e-02
5.6309194e-03
-2.9981029e-03
-1.0621891e-02
-1.3663112e-02
-1.1558648e-02
-5.5294454e-03
2.3220139e-03
9.6840687e-03
1.4491460e-02
1.4946014e-02
1.0791835e-02
4.2427076e-03
-1.0961906e-03
-2.4876066e-03
7.2200522e-04
7.7375794e-03
1.7231108e-02
2.8384938e-02
4.0896141e-02
5.3854471e-02
6.4222613e-02
6.6266627e-02
5.4956147e-02
3.1164123e-02
2.8090599e-03
-2.0589408e-02
-3.3376590e-02
-3.5240487e-02
-2.9777781e-02
-2.1085801e-02
-1.2899237e-02
-7.7801801e-03
-6.0341917e-03
-7.3150560e-03
-1.1335831e-02
-1.7697034e-02
-2.6053718e-02
-3.5210376e-02
-4.3195534e-02
-4.9352264e-02
-5.4054601e-02
-5.7524680e-02
-6.0086456e-02
-6.1680338e-02
-6.1800313e-02
-6.0110704e-02
-5.6454774e-02
-5.0306379e-02
-4.1131929e-02
-2.9329464e-02
-1.5330385e-02
7.9060211e-04
1.8507040e-02
3.7651932e-02
5.8933632e-02
8.2932288e-02
1.0887550e-01
1.3556847e-01
1.6216739e-01
1.8482779e-01
1.9517800e-01
1.8533360e-01
1.5392794e-01
1.0819602e-01
6.1126795e-02
2.3301127e-02
-2.0941931e-03
-1.7455057e-02
-2.7344429e-02
-3.5452848e-02
-4.3827803e-02
-5.3175093e-02
-6.3307553e-02
-7.3173010e-02
-8.1264748e-02
-8.7126045e-02
-9.1259625e-02
-9.3718751e-02
-9.3986127e-02
-9.1778450e-02
-8.6920585e-02
-7.9659934e-02
-7.0605296e-02
-6.0075436e-02
-4.8992775e-02
-3.8824949e-02
-3.0457889e-02
-2.4471746e-02
-2.1386273e-02
-2.1397214e-02
-2.4662385e-02
-3.0750647e-02
-3.7630118e-02
-4.2139112e-02
-4.1420664e-02
-3.3959242e-02
-1.9997990e-02
-1.9668039e-03
1.7056781e-02
3.5333342e-02
5.2284480e-02
6.9050303e-02
8.7959147e-02
1.1044343e-01
1.3630010e-01
1.6394294e-01
1.8902800e-01
2.0088814e-01
1.8624352e-01
1.4214239e-01
8.2291813e-02
2.6927192e-02
-1.1552727e-02
-3.2179041e-02
-4.0299024e-02
-4.2038750e-02
-4.2083105e-02
-4.3333831e-02
-4.6215231e-02
-4.9427890e-02
-5.3310277e-02
-6.0093492e-02
-6.9356835e-02
-7.8549381e-02
-8.6124797e-02
-9.0938041e-02
-9.4332822e-02
-9.6369817e-02
-9.1700177e-02
-7.7974817e-02
-5.7985647e-02
-3.5700343e-02
-1.5630219e-02
-3.9334757e-04
1.0358033e-02
1.8971321e-02
2.8273426e-02
3.9510700e-02
5.2018608e-02
6.3452128e-02
7.0514256e-02
7.1213245e-02
6.5950359e-02
5.7016584e-02
4.7794428e-02
4.0539553e-02
3.5129934e-02
3.0167272e-02
2.4094484e-02
1.6380213e-02
7.6929326e-03
-1.7865491e-03
-1.2713899e-02
-2.4317585e-02
-3.4049327e-02
-3.9312894e-02
-3.8901271e-02
-3.4318541e-02
-2.9304595e-02
-2.7139501e-02
-2.8264251e-02
-3.0945942e-02
-3.2815419e-02
-3.2525660e-02
-3.0968943e-02
-2.9592060e-02
-2.9512513e-02
-3.1447951e-02
-3.5036897e-02
-3.9272352e-02
-4.2961094e-02
-4.5120815e-02
-4.4990852e-02
-4.1259484e-02
-3.2515779e-02
-1.8603470e-02
-5.0119822e-04
1.9864080e-02
3.9836574e-02
5.6951266e-02
6.8686889e-02
7.4025624e-02
7.4854612e-02
7.4200587e-02
7.4848504e-02
7.8145246e-02
8.2601441e-02
8.3181832e-02
7.3068901e-02
4.8808643e-02
1.4669694e-02
-2.0007597e-02
-4.7654905e-02
-6.5145310e-02
-7.3096063e-02
-7.4044458e-02
-7.0384838e-02
-6.4704746e-02
-5.9424085e-02
-5.4724141e-02
-4.8296881e-02
-3.6266537e-02
-1.5349449e-02
1.4795519e-02
5.1321156e-02
9.0201696e-02
1.2658721e-01
1.5093148e-01
1.4934294e-01
1.1542378e-01
6.0371632e-02
5.2684253e-03
-3.4141478e-02
-5.4074419e-02
-5.9168493e-02
-5.6276275e-02
-5.1641203e-02
-4.9606763e-02
-5.1224964e-02
-5.4817546e-02
-5.8287427e-02
-6.0200395e-02
-5.9742558e-02
-5.6999197e-02
-5.2592817e-02
-4.6535814e-02
-3.8658367e-02
-2.9334829e-02
-1.9460129e-02
-1.0568459e-02
-3.2862384e-03
3.6912295e-03
1.2517370e-02
2.4970736e-02
4.1498409e-02
6.0696740e-02
7.9629437e-02
9.5272305e-02
1.0547302e-01
1.0701970e-01
9.4453823e-02
6.5278676e-02
2.4871438e-02
-1.5866664e-02
-4.6173801e-02
-6.1451730e-02
-6.4355842e-02
-6.0873319e-02
-5.7228967e-02
-5.7593735e-02
-6.3094446e-02
-7.1862108e-02
-8.0546883e-02
-8.5812906e-02
-8.4730710e-02
-7.5977296e-02
-6.0161006e-02
-3.9385214e-02
-1.6487554e-02
6.0782255e-03
2.7211660e-02
4.7651266e-02
6.9054040e-02
9.2566205e-02
1.1801246e-01
1.4428709e-01
1.6890160e-01
1.8416519e-01
1.7749671e-01
1.4229236e-01
8.7606463e-02
3.3096109e-02
-5.4161706e-03
-2.3980371e-02
-2.7059658e-02
-2.1473081e-02
-1.3238280e-02
-5.9573608e-03
-1.1439692e-03
1.0800456e-04
-4.9845169e-03
-1.9604513e-02
-4.1819430e-02
-6.5573290e-02
-8.6392361e-02
-1.0302629e-01
-1.1839981e-01
-1.3347826e-01
-1.4287536e-01
-1.4407963e-01
-1.3974261e-01
-1.3341730e-01
-1.2758015e-01
-1.2099236e-01
-1.1100849e-01
-9.6265159e-02
-7.6166187e-02
-5.1925995e-02
-2.5672387e-02
2.0039175e-03
3.1508401e-02
6.3097146e-02
9.6964528e-02
1.3323598e-01
1.7087671e-01
2.0867959e-01
2.4592664e-01
2.7840172e-01
2.9528683e-01
2.8345189e-01
2.3856243e-01
1.7190759e-01
1.0319538e-01
4.6096353e-02
3.6776468e-03
-2.7367934e-02
-5.3368923e-02
-7.9095047e-02
-1.0535899e-01
-1.3018686e-01
-1.5034789e-01
-1.6371741e-01
-1.7009640e-01
-1.6978318e-01
-1.6284988e-01
-1.4973242e-01
-1.3167670e-01
-1.1079121e-01
-8.9382021e-02
-6.9108634e-02
-5.0864206e-02
-3.4385292e-02
-1.8277041e-02
-8.2660411e-04
1.8849080e-02
4.0401760e-02
6.2636689e-02
8.3517110e-02
1.0024408e-01
1.0909024e-01
1.0688012e-01
9.3931556e-02
7.5600089e-02
5.9400811e-02
4.9259523e-02
4.4691967e-02
4.3395713e-02
4.2234181e-02
3.7683698e-02
2.6950392e-02
9.6401144e-03
-1.0822954e-02
-2.8730866e-02
-4.0029887e-02
-4.3663241e-02
-4.1056105e-02
-3.5433958e-02
-3.0342251e-02
-2.8369665e-02
-3.0062145e-02
-3.3813224e-02
-3.7219075e-02
-3.8633114e-02
-3.7836754e-02
-3.5922741e-02
-3.4799611e-02
-3.5511255e-02
-3.7162544e-02
-3.7831629e-02
-3.5848874e-02
-3.0476076e-02
-2.2410522e-02
-1.3878082e-02
-6.8631025e-03
-2.4743898e-03
-1.2593197e-03
-2.7304043e-03
-5.8600625e-03
-9.1830278e-03
-1.0944620e-02
-9.9155581e-03
-5.8033374e-03
1.1553490e-03
1.0305007e-02
1.9735414e-02
2.7395852e-02
3.3135369e-02
3.7794492e-02
4.1097481e-02
4.1252976e-02
3.6048503e-02
2.5648392e-02
1.4372060e-02
7.4056362e-03
6.3768542e-03
7.9508252e-03
5.6794889e-03
-5.2978259e-03
-2.2495133e-02
-3.6934580e-02
-4.0570666e-02
-2.9571403e-02
-4.5571729e-03
3.0901989e-02
7.3037364e-02
1.1885700e-01
1.6328437e-01
1.9188402e-01
1.8310377e-01
1.2820895e-01
4.5220067e-02
-3.4412797e-02
-8.9811685e-02
-1.1917799e-01
-1.3058884e-01
-1.3320587e-01
-1.3574713e-01
-1.4401315e-01
-1.5687268e-01
-1.6749965e-01
-1.6959471e-01
-1.6047588e-01
-1.4048604e-01
-1.1203177e-01
-7.8385759e-02
-4.2688463e-02
-6.8745134e-03
2.8889461e-02
6.5479548e-02
1.0427678e-01
1.4656844e-01
1.9329355e-01
2.4455546e-01
2.9705016e-01
3.4010381e-01
3.5497806e-01
3.2616197e-01
2.5624716e-01
1.6595617e-01
7.9205567e-02
9.0309094e-03
-4.3414635e-02
-8.1283862e-02
-1.0920160e-01
-1.3265222e-01
-1.5420171e-01
-1.7462544e-01
-1.9138108e-01
-1.9767661e-01
-1.9129479e-01
-1.7529157e-01
-1.5337258e-01
-1.2971522e-01
-1.0668648e-01
-8.4431290e-02
-6.1822028e-02
-3.6833235e-02
-9.5098100e-03
1.5627732e-02
3.0240928e-02
2.8600645e-02
1.4020248e-02
-3.4216432e-03
-1.4401139e-02
-1.5618468e-02
-9.1703725e-03
1.2091089e-03
1.2280113e-02
2.1124929e-02
2.6577100e-02
3.0955504e-02
3.8186107e-02
5.1027929e-02
7.0223975e-02
9.3610561e-02
1.1493356e-01
1.2494044e-01
1.1620639e-01
9.0654101e-02
5.9883099e-02
3.5671864e-02
2.3023363e-02
2.0462541e-02
2.2944960e-02
2.4973561e-02
2.3402546e-02
1.7531067e-02
6.9633554e-03
-8.0885861e-03
-2.4738287e-02
-3.7630195e-02
-4.1999918e-02
-3.6630748e-02
-2.3531314e-02
-6.3209637e-03
1.0182073e-02
1.9950110e-02
1.7199682e-02
5.4398503e-04
-2.4084854e-02
-4.6586510e-02
-5.9423381e-02
-6.0681371e-02
-5.2796209e-02
-4.0906310e-02
-3.0264604e-02
-2.4313171e-02
-2.4144454e-02
-2.8465299e-02
-3.5029381e-02
-4.1648654e-02
-4.6642937e-02
-4.9040520e-02
-4.8736282e-02
-4.6815620e-02
-4.4789909e-02
-4.3890067e-02
-4.4657511e-02
-4.6273264e-02
-4.7167420e-02
-4.6092768e-02
-4.2053613e-02
-3.4804881e-02
-2.4896950e-02
-1.2915646e-02
-1.4463076e-05
1.3357511e-02
2.7909213e-02
4.3882461e-02
6.1796755e-02
8.2046089e-02
1.0414846e-01
1.2695440e-01
1.4877074e-01
1.6739111e-01
1.7738069e-01
1.6998544e-01
1.3950343e-01
8.9418730e-02
3.1618389e-02
-2.0687213e-02
-6.0009689e-02
-8.5982491e-02
-1.0224904e-01
-1.1312814e-01
-1.2153250e-01
-1.2822677e-01
-1.3189456e-01
-1.3044590e-01
-1.2266735e-01
-1.0838158e-01
-8.8670964e-02
-6.5923834e-02
-4.2072525e-02
-1.7530255e-02
7.9906797e-03
3.3907552e-02
5.8901335e-02
8.0813072e-02
9.6650434e-02
1.0541851e-01
1.0840493e-01
1.0664367e-01
9.9590980e-02
8.6841448e-02
6.9535025e-02
5.0159032e-02
3.1419628e-02
1.5025477e-02
2.6135383e-03
-4.0559790e-03
-4.7285296e-03
-1.8139178e-03
2.1100098e-03
5.4635798e-03
6.3480212e-03
2.6661893e-03
-7.8917127e-03
-2.5912692e-02
-4.8005761e-02
-6.7458808e-02
-7.8061979e-02
-7.7694694e-02
-6.8081605e-02
-5.2899623e-02
-3.5904675e-02
-2.0156734e-02
-8.4639727e-03
-3.1438270e-03
-3.9246111e-03
-6.9818856e-03
-7.8185262e-03
-4.0407743e-03
4.1802893e-03
1.4775915e-02
2.5812234e-02
3.6385225e-02
4.5531056e-02
5.2178841e-02
5.5932930e-02
5.6357459e-02
5.2354887e-02
4.4395072e-02
3.4302257e-02
2.2842145e-02
1.0110915e-02
-5.4963778e-03
-2.3180558e-02
-3.6545954e-02
-4.2050895e-02
-4.1125192e-02
-3.6459721e-02
-3.0947814e-02
-2.5790673e-02
-2.1853590e-02
-2.0797673e-02
-2.2726831e-02
-2.5755883e-02
-2.7500797e-02
-2.6385523e-02
-2.2204436e-02
-1.6405504e-02
-1.1578179e-02
-9.7675029e-03
-1.1935451e-02
-1.7577098e-02
-2.3905164e-02
-2.7943196e-02
-2.8532620e-02
-2.5069712e-02
-1.7830079e-02
-8.0475998e-03
3.3251514e-03
1.4620168e-02
2.3471175e-02
2.8424125e-02
2.9512602e-02
2.8248005e-02
2.7191998e-02
2.8436000e-02
3.2518429e-02
3.8824920e-02
4.5462148e-02
4.9766288e-02
4.9943375e-02
4.5639157e-02
3.8485976e-02
3.0999493e-02
2.4726217e-02
2.0130373e-02
1.6788728e-02
1.3692261e-02
9.5528412e-03
3.9405970e-03
-2.5214276e-03
-9.2512100e-03
-1.6679878e-02
-2.6290857e-02
-3.8781131e-02
-5.2520908e-02
-6.3310776e-02
-6.7350536e-02
-6.4611876e-02
-5.7753606e-02
-4.9741452e-02
-4.2903320e-02
-3.8481500e-02
-3.6263678e-02
-3.5399756e-02
-3.4854579e-02
-3.3038925e-02
-2.9051802e-02
-2.3212382e-02
-1.5923897e-02
-7.6382038e-03
1.3733325e-03
1.1346140e-02
2.2015254e-02
3.3096839e-02
4.4993854e-02
5.7986640e-02
7.2096953e-02
8.6677381e-02
1.0061482e-01
1.1311805e-01
1.2307916e-01
1.2747803e-01
1.1964972e-01
9.3532785e-02
5.2335429e-02
8.6668835e-03
-2.5011676e-02
-4.3795695e-02
-4.9841687e-02
-4.8499454e-02
-4.5578826e-02
-4.6235577e-02
-5.3135372e-02
-6.4339117e-02
-7.5090236e-02
-8.1305973e-02
-8.1073234e-02
-7.4771639e-02
-6.4213996e-02
-5.1921971e-02
-3.9755155e-02
-2.8805469e-02
-2.0328235e-02
-1.5509393e-02
-1.5597608e-02
-2.0434092e-02
-2.7192004e-02
-3.1832286e-02
-3.1745118e-02
-2.6889392e-02
-1.9073071e-02
-1.1349917e-02
-5.6605816e-03
-4.1694280e-04
7.7229944e-03
2.0339180e-02
3.6284370e-02
5.2804866e-02
6.6762804e-02
7.4828968e-02
7.4117486e-02
6.5371149e-02
5.3694576e-02
4.5442833e-02
4.5191773e-02
5.2984273e-02
6.5880103e-02
8.0153778e-02
8.9282704e-02
8.5766668e-02
6.6318782e-02
3.5225647e-02
2.7597485e-03
-2.1830323e-02
-3.6098615e-02
-4.3303086e-02
-4.7279988e-02
-5.0867174e-02
-5.6133031e-02
-6.4263572e-02
-7.5347441e-02
-8.6834714e-02
-9.4000925e-02
-9.2708559e-02
-8.1874942e-02
-6.3698247e-02
-4.2260017e-02
-2.1748793e-02
-4.1231566e-03
1.0942900e-02
2.4808292e-02
3.8785556e-02
5.2616707e-02
6.4862339e-02
7.4715003e-02
8.1375572e-02
8.2336085e-02
7.5966663e-02
6.2984680e-02
4.4908617e-02
2.3330825e-02
-2.8381463e-03
-3.2055443e-02
-5.5675219e-02
-6.8487905e-02
-7.1575537e-02
-6.7689033e-02
-6.0872784e-02
-5.3734448e-02
-4.6795144e-02
-3.9208613e-02
-2.8362727e-02
-1.2877031e-02
5.8164282e-03
2.4933810e-02
4.1968914e-02
5.6156500e-02
6.7140208e-02
7.3620389e-02
7.4637554e-02
6.9304062e-02
5.7082633e-02
3.9539138e-02
1.9958153e-02
2.2134051e-03
-1.0633107e-02
-1.8144327e-02
-2.2463030e-02
-2.6476254e-02
-3.2731324e-02
-4.2288180e-02
-5.4315816e-02
-6.7273603e-02
-7.9513109e-02
-8.9241666e-02
-9.4132245e-02
-9.1963076e-02
-8.2478786e-02
-6.7572449e-02
-4.9900168e-02
-3.2381482e-02
-1.7526873e-02
-6.4885640e-03
6.5288760e-04
4.4936381e-03
6.7430906e-03
9.0639541e-03
1.1174927e-02
1.3085327e-02
1.6379212e-02
2.2236201e-02
3.0547807e-02
3.8972917e-02
4.3438800e-02
4.1957964e-02
3.7087746e-02
3.3019699e-02
3.2748605e-02
3.6826139e-02
4.3283442e-02
5.1031128e-02
6.1236878e-02
7.5284705e-02
9.2861146e-02
1.1294703e-01
1.3482518e-01
1.5433065e-01
1.6046390e-01
1.3988220e-01
8.8467267e-02
1.8439904e-02
-4.9203121e-02
-9.9559205e-02
-1.2928215e-01
-1.4233882e-01
-1.4497382e-01
-1.4293696e-01
-1.4033504e-01
-1.3778568e-01
-1.3276099e-01
-1.2227891e-01
-1.0440156e-01
-7.9165509e-02
-4.8658004e-02
-1.5899256e-02
1.6318738e-02
4.6542064e-02
7.4116882e-02
9.8805081e-02
1.2119628e-01
1.4071002e-01
1.5436120e-01
1.5834609e-01
1.5018982e-01
1.3137584e-01
1.0820149e-01
8.6899095e-02
6.9336338e-02
5.3559788e-02
3.5536820e-02
1.1407750e-02
-1.9284155e-02
-5.2763284e-02
-8.3621209e-02
-1.0697238e-01
-1.2058574e-01
-1.2512632e-01
-1.2316022e-01
-1.1929446e-01
-1.1815303e-01
-1.2055946e-01
-1.2322296e-01
-1.2213489e-01
-1.1478417e-01
-1.0137688e-01
-8.4450220e-02
-6.7015521e-02
-5.2304688e-02
-4.2324266e-02
-3.6948216e-02
-3.5718467e-02
-3.7586068e-02
-3.9992253e-02
-3.9488565e-02
-3.3441700e-02
-2.1223031e-02
-3.4739798e-03
1.7637683e-02
3.9055696e-02
5.8848807e-02
7.5251460e-02
8.5382717e-02
8.7437090e-02
8.3279347e-02
7.8796199e-02
8.1540387e-02
9.5969705e-02
1.2186472e-01
1.5671113e-01
1.9706962e-01
2.3991615e-01
2.8044482e-01
3.0403685e-01
2.8937682e-01
2.2861497e-01
1.3986906e-01
5.3571166e-02
-1.0883602e-02
-5.1749523e-02
-7.5775580e-02
-9.0902233e-02
-1.0427338e-01
-1.1999493e-01
-1.3772666e-01
-1.5381378e-01
-1.6513383e-01
-1.7189060e-01
-1.7572835e-01
-1.7905980e-01
-1.8411204e-01
-1.9004367e-01
-1.9598164e-01
-2.0034502e-01
-1.9742014e-01
-1.8376470e-01
-1.6074259e-01
-1.3112643e-01
-9.8276025e-02
-6.4888676e-02
-3.2025040e-02
7.7474763e-04
3.4693967e-02
7.1080607e-02
1.1064344e-01
1.5314272e-01
1.9760527e-01
2.4252485e-01
2.8439992e-01
3.1302878e-01
3.1341728e-01
2.7746102e-01
2.1326824e-01
1.4093185e-01
7.8497095e-02
3.2943301e-02
2.4099018e-03
-1.8954695e-02
-3.8085532e-02
-5.8894797e-02
-8.0524641e-02
-9.9302678e-02
-1.1184042e-01
-1.1690027e-01
-1.1597085e-01
-1.1257259e-01
-1.0936734e-01
-1.0728793e-01
-1.0631730e-01
-1.0545088e-01
-1.0336574e-01
-9.9616129e-02
-9.4926303e-02
-9.0937928e-02
-8.8751795e-02
-8.6819105e-02
-8.1775326e-02
-7.0632960e-02
-5.2061535e-02
-2.7149757e-02
1.0379549e-03
2.9373330e-02
5.6600088e-02
8.3832861e-02
1.1329303e-01
1.4655643e-01
1.8329752e-01
2.2116142e-01
2.5401872e-01
2.6898813e-01
2.5182204e-01
1.9964636e-01
1.2715017e-01
5.6502892e-02
1.5361633e-03
-3.5837683e-02
-5.9176563e-02
-7.3630556e-02
-8.5242280e-02
-9.7861883e-02
-1.1141102e-01
-1.2332940e-01
-1.3029235e-01
-1.3069993e-01
-1.2512553e-01
-1.1474250e-01
-1.0073639e-01
-8.3597036e-02
-6.3289853e-02
-4.0119862e-02
-1.5193837e-02
9.2252259e-03
2.8769811e-02
3.6979850e-02
3.0198423e-02
1.2722981e-02
-5.5759007e-03
-1.6138357e-02
-1.5534009e-02
-5.5671184e-03
9.1631103e-03
2.3399168e-02
3.2525987e-02
3.5729994e-02
3.7285599e-02
4.2983813e-02
5.5071488e-02
7.2107636e-02
9.0706736e-02
1.0433768e-01
1.0475971e-01
8.7285551e-02
5.5657045e-02
2.1027357e-02
-6.2943561e-03
-2.2473101e-02
-2.8914910e-02
-2.9986531e-02
-3.1146167e-02
-3.6996464e-02
-4.9235174e-02
-6.5319926e-02
-7.9954481e-02
-8.8338406e-02
-8.9143923e-02
-8.4349997e-02
-7.6135105e-02
-6.5944083e-02
-5.5275502e-02
-4.5484319e-02
-3.7589204e-02
-3.1997411e-02
-2.7680894e-02
-2.2859340e-02
-1.6724351e-02
-9.1714543e-03
-6.5653229e-04
7.8379777e-03
1.5855214e-02
2.3747850e-02
3.2512075e-02
4.3097161e-02
5.4980641e-02
6.6035288e-02
7.4078666e-02
7.8174619e-02
7.9486684e-02
8.0151714e-02
8.0988857e-02
8.0332469e-02
7.4594628e-02
6.1230320e-02
4.1164668e-02
1.8312024e-02
-2.8376664e-03
-1.9624813e-02
-3.1395110e-02
-3.8747365e-02
-4.3064970e-02
-4.5340572e-02
-4.5844858e-02
-4.4217255e-02
-3.9531914e-02
-3.1725002e-02
-2.1914530e-02
-1.1297900e-02
-2.0791881e-03
2.2354916e-03
7.0424446e-05
-7.7697393e-03
-2.0201773e-02
-3.6013622e-02
-5.5996231e-02
-7.8115520e-02
-9.3478898e-02
-9.7005135e-02
-9.0415045e-02
-7.7221277e-02
-6.1371230e-02
-4.5144741e-02
-2.9045404e-02
-1.2201907e-02
7.1909788e-03
2.9730274e-02
5.4505707e-02
8.0093016e-02
1.0489811e-01
1.2822863e-01
1.4965722e-01
1.6539209e-01
1.6848982e-01
1.5329694e-01
1.2034221e-01
7.8034950e-02
3.7213026e-02
4.8849463e-03
-1.6700645e-02
-2.9482010e-02
-3.8477560e-02
-4.7887723e-02
-5.8794345e-02
-6.9227420e-02
-7.5564352e-02
-7.5756908e-02
-7.0758056e-02
-6.3398229e-02
-5.6795082e-02
-5.2990973e-02
-5.1858538e-02
-5.1863345e-02
-5.1525115e-02
-4.9590836e-02
-4.5659461e-02
-4.0226752e-02
-3.3664309e-02
-2.6336187e-02
-1.8993432e-02
-1.2327813e-02
-6.7562040e-03
-2.1518599e-03
2.9344309e-03
1.0135134e-02
1.9919687e-02
3.1847454e-02
4.4719340e-02
5.7528656e-02
6.9654761e-02
8.0915767e-02
9.1832982e-02
1.0220997e-01
1.0941916e-01
1.0808875e-01
9.3485279e-02
6.6808077e-02
3.6278221e-02
1.0932242e-02
-5.1607559e-03
-1.3572213e-02
-1.9295489e-02
-2.6265571e-02
-3.5943155e-02
-4.7595339e-02
-5.8609996e-02
-6.6952091e-02
-7.1955369e-02
-7.3560938e-02
-7.1754425e-02
-6.6329776e-02
-5.7502756e-02
-4.6394564e-02
-3.4746414e-02
-2.4419724e-02
-1.7116171e-02
-1.3609051e-02
-1.3037119e-02
-1.3579249e-02
-1.3583431e-02
-1.2146307e-02
-9.1721039e-03
-5.3132396e-03
-1.5588794e-03
9.6931093e-04
1.2384373e-03
-3.4900304e-04
-1.4994317e-03
1.7449715e-04
5.1068947e-03
1.2273504e-02
2.0532265e-02
2.8684835e-02
3.5697010e-02
4.1463268e-02
4.6228997e-02
4.9951886e-02
5.2993767e-02
5.5372044e-02
5.5612757e-02
5.1305069e-02
4.1409001e-02
2.7441778e-02
1.2917695e-02
1.1537840e-03
-7.0068330e-03
-1.1438987e-02
-1.2021084e-02
-9.1705931e-03
-3.1967833e-03
4.9492455e-03
1.2477585e-02
1.4218318e-02
5.2415859e-03
-1.3443320e-02
-3.4340598e-02
-4.9622093e-02
-5.5774758e-02
-5.4298716e-02
-4.9657049e-02
-4.6318197e-02
-4.7202450e-02
-5.2888043e-02
-6.0917390e-02
-6.7237660e-02
-6.8859809e-02
-6.4337565e-02
-5.3834187e-02
-3.8719055e-02
-2.0432925e-02
-6.1820271e-04
1.8428794e-02
3.3829805e-02
4.2893665e-02
4.5369907e-02
4.4833543e-02
4.6120320e-02
5.1972101e-02
6.2293085e-02
7.5160353e-02
8.7206014e-02
9.3849513e-02
9.1879537e-02
8.2520410e-02
7.1549279e-02
6.5761877e-02
6.8328346e-02
7.7514405e-02
8.8174469e-02
9.2543992e-02
8.2883617e-02
5.8552048e-02
2.6362310e-02
-6.6499707e-03
-3.6075329e-02
-6.2100652e-02
-8.5848918e-02
-1.0349290e-01
-1.1166699e-01
-1.1115509e-01
-1.0492400e-01
-9.7827973e-02
-9.4420640e-02
-9.5496485e-02
-9.7462332e-02
-9.5087750e-02
-8.5082379e-02
-6.7869452e-02
-4.6471811e-02
-2.4635960e-02
-6.0154642e-03
6.4993982e-03
1.1816090e-02
1.1545376e-02
8.9341101e-03
7.1299016e-03
7.9872146e-03
1.1508720e-02
1.6798790e-02
2.3038553e-02
2.9107131e-02
3.3060477e-02
3.3349267e-02
3.0051585e-02
2.5444690e-02
2.3351724e-02
2.6669973e-02
3.5718843e-02
4.8180556e-02
5.9586022e-02
6.4537248e-02
6.0466147e-02
5.0085171e-02
3.8915003e-02
3.1527628e-02
2.9675383e-02
3.2242593e-02
3.5886592e-02
3.6471005e-02
3.0863188e-02
1.8575282e-02
2.3812732e-03
-1.3261330e-02
-2.5053242e-02
-3.2364744e-02
-3.6019053e-02
-3.7181991e-02
-3.7041843e-02
-3.6589972e-02
-3.6860671e-02
-3.8149410e-02
-3.9568700e-02
-3.9796790e-02
-3.7782916e-02
-3.3362837e-02
-2.7615698e-02
-2.1936915e-02
-1.7158318e-02
-1.3842022e-02
-1.1997440e-02
-1.1030990e-02
-1.0121935e-02
-8.2973005e-03
-5.2351760e-03
-2.0318731e-03
-5.4961451e-04
-1.5919486e-03
-3.9995970e-03
-5.4680932e-03
-3.7286829e-03
1.9505978e-03
1.0315488e-02
1.8798675e-02
2.4290134e-02
2.4783057e-02
2.0896433e-02
1.5092270e-02
9.4537786e-03
4.9529647e-03
1.3177098e-03
-2.6578971e-03
-8.0650061e-03
-1.5053115e-02
-2.3096602e-02
-3.1618059e-02
-3.9169720e-02
-4.4099970e-02
-4.5543877e-02
-4.3078054e-02
-3.6839230e-02
-2.7046380e-02
-1.4101638e-02
9.5703248e-04
1.6748060e-02
3.1374596e-02
4.3255831e-02
5.1942502e-02
5.7263039e-02
5.9799166e-02
6.1102680e-02
6.2064122e-02
6.2202510e-02
6.0625583e-02
5.6618852e-02
4.9904425e-02
4.1384991e-02
3.2766097e-02
2.5323840e-02
1.9188100e-02
1.4159705e-02
9.7975389e-03
5.1801881e-03
-6.6150606e-04
-8.3318266e-03
-1.7281673e-02
-2.5776548e-02
-3.1913481e-02
-3.5061453e-02
-3.5762803e-02
-3.5304120e-02
-3.5633734e-02
-3.8035092e-02
-4.1786069e-02
-4.4815994e-02
-4.5287793e-02
-4.2401131e-02
-3.7217258e-02
-3.2339637e-02
-3.0334919e-02
-3.2158925e-02
-3.6258645e-02
-3.9829954e-02
-4.0702143e-02
-3.7996894e-02
-3.2024978e-02
-2.3498425e-02
-1.3350178e-02
-2.9335244e-03
6.7931216e-03
1.5925925e-02
2.5322907e-02
3.5519745e-02
4.6545979e-02
5.8566866e-02
7.1870466e-02
8.6611399e-02
1.0251313e-01
1.1824594e-01
1.3044245e-01
1.3278518e-01
1.1854736e-01
8.8218931e-02
5.0246485e-02
1.3043762e-02
-1.9254109e-02
-4.8103232e-02
-7.5142763e-02
-9.6040752e-02
-1.0675595e-01
-1.0779268e-01
-1.0226142e-01
-9.4607258e-02
-8.8183024e-02
-8.3815444e-02
-7.9244886e-02
-7.0603668e-02
-5.6127041e-02
-3.6846547e-02
-1.5512314e-02
4.0361762e-03
1.8434914e-02
2.6620622e-02
2.9763419e-02
2.9555416e-02
2.7921589e-02
2.6706081e-02
2.6971199e-02
2.8894287e-02
3.0738982e-02
2.9394141e-02
2.2959455e-02
1.3122857e-02
4.5415914e-03
7.2658228e-04
1.7397718e-03
5.5696549e-03
9.7937640e-03
1.2839212e-02
1.3979314e-02
1.2218661e-02
8.0082081e-03
3.9441705e-03
2.8452439e-03
6.6730708e-03
1.5412947e-02
2.6603998e-02
3.5420194e-02
3.6473349e-02
2.7971907e-02
1.3341218e-02
-1.8096691e-03
-1.3258135e-02
-1.9405452e-02
-2.0919306e-02
-2.0166810e-02
-2.0208669e-02
-2.2184515e-02
-2.4646912e-02
-2.5671824e-02
-2.4659209e-02
-2.2635354e-02
-2.0969074e-02
-1.9710363e-02
-1.7025327e-02
-1.1507746e-02
-3.7909710e-03
3.9060355e-03
8.6901028e-03
9.2462499e-03
7.1446076e-03
5.7133861e-03
7.3328652e-03
1.2373426e-02
1.9693371e-02
2.7026178e-02
3.1776735e-02
3.1454706e-02
2.5402705e-02
1.5569791e-02
4.7987964e-03
-4.0630183e-03
-9.5664560e-03
-1.1894302e-02
-1.1250833e-02
-8.2929235e-03
-4.7327128e-03
-2.9964808e-03
-4.9301385e-03
-9.7417151e-03
-1.4387682e-02
-1.6318466e-02
-1.4866274e-02
-1.0490384e-02
-4.2599479e-03
2.7776050e-03
1.0097303e-02
1.7299055e-02
2.3312425e-02
2.5044469e-02
1.8686546e-02
4.1480329e-03
-1.3471928e-02
-2.7275924e-02
-3.3164690e-02
-3.1424978e-02
-2.4854260e-02
-1.7265517e-02
-1.2722898e-02
-1.3531263e-02
-1.8702950e-02
-2.4956841e-02
-2.9060466e-02
-2.9530918e-02
-2.6764231e-02
-2.1964353e-02
-1.5931448e-02
-8.7055512e-03
1.8765470e-05
1.0551057e-02
2.2498541e-02
3.4341042e-02
4.4562483e-02
5.2729422e-02
5.9369271e-02
6.5671760e-02
7.2079845e-02
7.6888939e-02
7.7167413e-02
7.0901536e-02
5.8450781e-02
4.2149651e-02
2.5180420e-02
9.9663290e-03
-2.9784337e-03
-1.4831683e-02
-2.7148896e-02
-4.0069074e-02
-5.2441344e-02
-6.2919323e-02
-7.0726727e-02
-7.6210885e-02
-7.9679711e-02
-8.0358860e-02
-7.7413829e-02
-7.0910187e-02
-6.1638273e-02
-5.0891364e-02
-4.0008148e-02
-2.9531189e-02
-1.9382231e-02
-9.4740694e-03
1.7908997e-04
1.0178522e-02
2.1610500e-02
3.5523351e-02
5.2913677e-02
7.3079043e-02
9.2750445e-02
1.0725125e-01
1.1161251e-01
1.0268936e-01
8.3108636e-02
5.8995583e-02
3.4121078e-02
9.9908344e-03
-1.5045601e-02
-4.1872347e-02
-6.4800747e-02
-7.8369090e-02
-8.1670911e-02
-7.6336229e-02
-6.6128040e-02
-5.4697692e-02
-4.3702516e-02
-3.2686451e-02
-2.0039713e-02
-4.5398934e-03
1.4106085e-02
3.4821794e-02
5.4334539e-02
6.7586385e-02
6.9322695e-02
5.7431950e-02
3.6396114e-02
1.4228075e-02
-3.1276490e-03
-1.3596772e-02
-1.8536651e-02
-2.0913657e-02
-2.3316078e-02
-2.7159791e-02
-3.2467788e-02
-3.7704739e-02
-4.0795908e-02
-4.0109273e-02
-3.4869621e-02
-2.5543454e-02
-1.3454743e-02
-1.0078917e-04
1.3353087e-02
2.5632302e-02
3.5569562e-02
4.2699085e-02
4.6755411e-02
4.7955577e-02
4.6997183e-02
4.3602254e-02
3.6337858e-02
2.4059789e-02
6.1407009e-03
-1.6477776e-02
-3.9658022e-02
-5.8662446e-02
-7.1032381e-02
-7.6907061e-02
-7.8175091e-02
-7.6574212e-02
-7.3032864e-02
-6.7463561e-02
-5.9341013e-02
-4.9351296e-02
-3.9505060e-02
-3.2350403e-02
-2.8690336e-02
-2.4709115e-02
-1.4183190e-02
6.4226116e-03
3.6929376e-02
7.5521386e-02
1.1827454e-01
1.5500737e-01
1.6944314e-01
1.5046558e-01
1.0352909e-01
4.7396089e-02
8.0063404e-04
-2.7543640e-02
-3.8404075e-02
-3.6715817e-02
-2.9191152e-02
-2.2235528e-02
-1.9476527e-02
-2.0533812e-02
-2.1210092e-02
-1.6802565e-02
-5.4321517e-03
1.2512569e-02
3.5587690e-02
6.0773142e-02
8.1697411e-02
8.9061997e-02
7.7100724e-02
4.9657014e-02
1.8703205e-02
-3.4020201e-03
-1.1999927e-02
-1.0610872e-02
-7.0289283e-03
-9.7708474e-03
-2.1866083e-02
-3.8897609e-02
-5.4051648e-02
-6.2814170e-02
-6.4563008e-02
-6.1859988e-02
-5.8739657e-02
-5.9609414e-02
-6.7472359e-02
-8.0479503e-02
-9.1946671e-02
-9.5478993e-02
-8.8924910e-02
-7.3968130e-02
-5.4789983e-02
-3.4957697e-02
-1.5132245e-02
5.9933324e-03
3.0091630e-02
5.5173830e-02
7.4292541e-02
8.1831712e-02
7.9311543e-02
7.3878066e-02
7.2351737e-02
7.6985925e-02
8.6312476e-02
9.7783523e-02
1.0865293e-01
1.1425146e-01
1.0650073e-01
7.7499068e-02
2.8720489e-02
-2.5429631e-02
-6.9273636e-02
-9.6219810e-02
-1.0689661e-01
-1.0651593e-01
-1.0230711e-01
-9.8591133e-02
-9.4542467e-02
-8.5722937e-02
-6.8053894e-02
-4.0278569e-02
-3.9729758e-03
3.7804452e-02
7.9783957e-02
1.0990897e-01
1.1133759e-01
7.7243659e-02
2.0876097e-02
-3.4057058e-02
-6.9591837e-02
-8.0924515e-02
-7.2480379e-02
-5.1469069e-02
-2.5276364e-02
1.5552770e-03
2.9253852e-02
5.8582978e-02
8.3477806e-02
9.0261441e-02
6.9471074e-02
2.9177517e-02
-8.3146971e-03
-2.3498690e-02
-1.0748303e-02
2.3263132e-02
6.8223736e-02
1.1786789e-01
1.6645621e-01
1.9984269e-01
2.0029102e-01
1.6375002e-01
1.0443509e-01
4.2772104e-02
-6.7622273e-03
-4.0473504e-02
-6.1455213e-02
-7.4728347e-02
-8.5546169e-02
-9.6795203e-02
-1.0761435e-01
-1.1512147e-01
-1.1692902e-01
-1.1255807e-01
-1.0356663e-01
-9.2593993e-02
-8.2394625e-02
-7.4860424e-02
-7.0381260e-02
-6.7801596e-02
-6.5046720e-02
-6.0470482e-02
-5.3728292e-02
-4.5431078e-02
-3.5981154e-02
-2.5280658e-02
-1.3571066e-02
-2.1708682e-03
7.3601412e-03
1.3891300e-02
1.7177156e-02
1.8540966e-02
1.9237715e-02
1.9333382e-02
1.9151524e-02
1.9051644e-02
1.8244712e-02
1.6430846e-02
1.5305196e-02
1.7584403e-02
2.4945572e-02
3.7065974e-02
5.1197399e-02
6.2265986e-02
6.6953853e-02
6.7240138e-02
6.7596465e-02
7.0805588e-02
7.4946619e-02
7.3455763e-02
6.0462354e-02
3.4772342e-02
9.9537138e-04
-3.3044646e-02
-6.2004664e-02
-8.4396371e-02
-1.0076724e-01
-1.1317094e-01
-1.2366288e-01
-1.3282153e-01
-1.3957999e-01
-1.4095125e-01
-1.3484411e-01
-1.2134758e-01
-1.0080439e-01
-7.5922929e-02
-5.2869865e-02
-3.6107671e-02
-2.3799137e-02
-8.5268526e-03
1.7581479e-02
5.7747570e-02
1.0999482e-01
1.7024955e-01
2.3283293e-01
2.8439009e-01
3.0278875e-01
2.7447729e-01
2.1159611e-01
1.4326229e-01
9.2457795e-02
6.4688381e-02
5.4098760e-02
5.1788538e-02
4.8955704e-02
3.9069765e-02
1.9726326e-02
-6.7339491e-03
-3.5054298e-02
-6.0065685e-02
-7.8530541e-02
-9.0175450e-02
-9.7014646e-02
-1.0127565e-01
-1.0414536e-01
-1.0602446e-01
-1.0722239e-01
-1.0748486e-01
-1.0650207e-01
-1.0410214e-01
-9.9650504e-02
-9.3244469e-02
-8.6476630e-02
-8.1915817e-02
-8.1467564e-02
-8.4807091e-02
-8.9382376e-02
-9.1937628e-02
-9.0211429e-02
-8.3461787e-02
-7.2724571e-02
-5.9373151e-02
-4.3885331e-02
-2.6829554e-02
-8.4715879e-03
1.1797317e-02
3.4488650e-02
5.9788887e-02
8.6669585e-02
1.1133061e-01
1.2892380e-01
1.3796471e-01
1.4244109e-01
1.4882218e-01
1.6109407e-01
1.7977534e-01
2.0180534e-01
2.1663641e-01
2.0905582e-01
1.7215730e-01
1.1556455e-01
5.8795944e-02
1.6715959e-02
-7.7666837e-03
-1.9186160e-02
-2.4705898e-02
-3.3628893e-02
-5.3416031e-02
-8.2943321e-02
-1.1225761e-01
-1.3079108e-01
-1.3400808e-01
-1.2347276e-01
-1.0392771e-01
-8.0152460e-02
-5.5952971e-02
-3.4176938e-02
-1.6397941e-02
-4.2482671e-03
3.9145735e-04
-1.7865833e-03
-8.3856885e-03
-1.8152209e-02
-3.0664215e-02
-4.7350281e-02
-6.6826989e-02
-8.1758914e-02
-8.8308539e-02
-8.8060881e-02
-8.3946390e-02
-7.8992123e-02
-7.3723933e-02
-6.6951646e-02
-5.6731924e-02
-4.0601486e-02
-1.8366529e-02
8.1937908e-03
3.7015865e-02
6.4878399e-02
8.9021048e-02
1.0878846e-01
1.2472259e-01
1.3850658e-01
1.5194882e-01
1.6432325e-01
1.6931922e-01
1.5688210e-01
1.2307109e-01
7.6736579e-02
3.2891602e-02
1.4810606e-03
-1.5734115e-02
-2.1876116e-02
-2.2135866e-02
-2.2080970e-02
-2.4548880e-02
-2.8588042e-02
-3.1553749e-02
-3.1217328e-02
-2.8047441e-02
-2.5603951e-02
-2.7568006e-02
-3.4352045e-02
-4.3495084e-02
-5.2322100e-02
-5.9583942e-02
-6.5601993e-02
-7.0790459e-02
-7.5236860e-02
-7.8777161e-02
-8.0742789e-02
-8.0544344e-02
-7.7925857e-02
-7.2469410e-02
-6.3544082e-02
-5.1494256e-02
-3.7849033e-02
-2.4217429e-02
-1.1649044e-02
-3.9610637e-04
9.6500325e-03
1.8787619e-02
2.7669881e-02
3.6715436e-02
4.5734065e-02
5.3265742e-02
5.6518295e-02
5.3666616e-02
4.5277679e-02
3.4276924e-02
2.4975284e-02
2.0296804e-02
2.0531979e-02
2.3535199e-02
2.5687225e-02
2.4496308e-02
2.0447895e-02
1.5789041e-02
1.1852075e-02
8.5747838e-03
5.6717667e-03
2.7345214e-03
-1.1493977e-03
-5.8818229e-03
-1.0170483e-02
-1.2686595e-02
-1.2137167e-02
-8.8924552e-03
-4.6360876e-03
-5.8171893e-04
2.5989295e-03
5.3830133e-03
8.5593370e-03
1.2111957e-02
1.5805232e-02
1.9591880e-02
2.3182393e-02
2.4782439e-02
2.1954848e-02
1.5082774e-02
8.1646278e-03
5.5434973e-03
8.4471183e-03
1.5231358e-02
2.3752327e-02
3.1070391e-02
3.2722292e-02
2.4684831e-02
5.6383160e-03
-2.0882483e-02
-4.6433401e-02
-6.2963313e-02
-6.7645319e-02
-6.2435541e-02
-5.1295229e-02
-3.8165462e-02
-2.5505545e-02
-1.4009733e-02
-3.3214520e-03
8.4896675e-03
2.3245924e-02
4.1233778e-02
6.1840497e-02
8.2078680e-02
9.4398578e-02
8.8323376e-02
5.9136192e-02
1.4711674e-02
-2.9414653e-02
-6.1431212e-02
-7.8720395e-02
-8.4946465e-02
-8.5503914e-02
-8.4889901e-02
-8.5587933e-02
-8.7200420e-02
-8.6891123e-02
-8.1337551e-02
-6.8786749e-02
-5.0143795e-02
-2.7895085e-02
-4.3025254e-03
1.9391480e-02
4.3309318e-02
6.8394071e-02
9.4834082e-02
1.2174906e-01
1.4795721e-01
1.6941006e-01
1.7626914e-01
1.5887798e-01
1.1829767e-01
6.8417172e-02
2.5967973e-02
-8.9022490e-04
-1.3585581e-02
-1.6844751e-02
-1.5230222e-02
-1.4513151e-02
-2.0469974e-02
-3.4034764e-02
-5.1581983e-02
-6.9210686e-02
-8.4487499e-02
-9.8499582e-02
-1.1134691e-01
-1.1782959e-01
-1.1605638e-01
-1.0942573e-01
-1.0159845e-01
-9.4968069e-02
-8.8774053e-02
-7.9969266e-02
-6.5416291e-02
-4.4134204e-02
-1.8255971e-02
8.2456226e-03
3.0334458e-02
4.5104327e-02
5.4346087e-02
6.3417027e-02
7.7207347e-02
9.5673425e-02
1.1523871e-01
1.3212047e-01
1.4049633e-01
1.3214410e-01
1.0361155e-01
6.0729046e-02
1.5293197e-02
-2.1502482e-02
-4.4126078e-02
-5.2611672e-02
-5.1013987e-02
-4.4224004e-02
-3.4261928e-02
-2.1124587e-02
-4.8509123e-03
1.3335290e-02
3.1322119e-02
4.6245142e-02
5.3690673e-02
5.0372762e-02
3.7825975e-02
2.1345559e-02
6.0613823e-03
-4.6630094e-03
-1.0573724e-02
-1.4009104e-02
-1.6891531e-02
-2.0800655e-02
-2.6223278e-02
-3.1616449e-02
-3.5692928e-02
-3.8662545e-02
-4.2886213e-02
-5.1587854e-02
-6.3763422e-02
-7.3175221e-02
-7.3643591e-02
-6.3160811e-02
-4.3458000e-02
-1.8485594e-02
6.8073236e-03
2.7106934e-02
3.8473642e-02
4.0908352e-02
3.8459426e-02
3.6461319e-02
3.6959463e-02
3.8751384e-02
4.0254966e-02
3.9920872e-02
3.6700363e-02
3.0977363e-02
2.4036297e-02
1.7331718e-02
1.1890078e-02
7.2448468e-03
2.6380424e-03
-1.5214530e-03
-4.7789893e-03
-7.3602869e-03
-9.0461924e-03
-9.1968339e-03
-7.6020305e-03
-5.1086806e-03
-4.3049187e-03
-8.0830751e-03
-1.6847247e-02
-2.7744496e-02
-3.7009882e-02
-4.2448550e-02
-4.4091644e-02
-4.3290457e-02
-4.1350064e-02
-3.9088064e-02
-3.7304966e-02
-3.7269588e-02
-3.9171933e-02
-4.0912524e-02
-3.8976746e-02
-2.9999974e-02
-1.3506127e-02
7.8099772e-03
3.0146812e-02
4.9409306e-02
6.2852045e-02
6.9639120e-02
7.0298500e-02
6.7191585e-02
6.4279720e-02
6.4258280e-02
6.4803751e-02
6.1465989e-02
5.2652098e-02
3.9645020e-02
2.5382592e-02
1.2572994e-02
1.9874517e-03
-5.9932103e-03
-1.1072102e-02
-1.4677201e-02
-1.8256271e-02
-2.2024896e-02
-2.6108726e-02
-3.1039635e-02
-3.7486938e-02
-4.5558972e-02
-5.3973209e-02
-6.0062311e-02
-6.1622796e-02
-5.9010661e-02
-5.5006418e-02
-5.2552605e-02
-5.2660208e-02
-5.4018114e-02
-5.4620385e-02
-5.3771456e-02
-5.1671733e-02
-4.8090430e-02
-4.2129538e-02
-3.3100620e-02
-2.1609184e-02
-8.9506228e-03
4.1433604e-03
1.7548672e-02
3.1254617e-02
4.5871008e-02
6.2592058e-02
8.1673414e-02
1.0268333e-01
1.2506235e-01
1.4771632e-01
1.7009851e-01
1.9118777e-01
2.0640342e-01
2.0694950e-01
1.8371950e-01
1.3589428e-01
7.5588559e-02
1.8194314e-02
-2.9385533e-02
-6.7510491e-02
-9.9926902e-02
-1.2871810e-01
-1.5034614e-01
-1.6164775e-01
-1.6314713e-01
-1.5739139e-01
-1.4809796e-01
-1.3768172e-01
-1.2640349e-01
-1.1329244e-01
-9.6962422e-02
-7.7077634e-02
-5.4303596e-02
-2.9633173e-02
-5.3301997e-03
1.5288282e-02
3.0191749e-02
4.0376300e-02
4.9180940e-02
5.9614217e-02
7.2451109e-02
8.6160083e-02
9.7436490e-02
1.0264360e-01
9.9750422e-02
8.9399862e-02
7.4690669e-02
5.9123547e-02
4.4497073e-02
3.0794088e-02
1.7713810e-02
5.5298126e-03
-5.3752192e-03
-1.4715301e-02
-2.2516151e-02
-2.9045645e-02
-3.4252837e-02
-3.7520454e-02
-3.7944285e-02
-3.5109749e-02
-2.9670897e-02
-2.3488489e-02
-1.9177753e-02
-1.8858899e-02
-2.2856088e-02
-2.9349244e-02
-3.5562677e-02
-3.8838629e-02
-3.7977584e-02
-3.3946361e-02
-2.8213577e-02
-2.1821569e-02
-1.5545816e-02
-9.5728892e-03
-3.2301083e-03
3.8958767e-03
1.1255117e-02
1.8201564e-02
2.3484726e-02
2.4670928e-02
2.0485581e-02
1.1727552e-02
4.9716432e-04
-9.3356252e-03
-1.4330427e-02
-1.3525639e-02
-8.1651635e-03
-2.0438577e-03
-2.9982420e-03
-1.9157373e-02
-4.7789815e-02
-7.5218127e-02
-8.9003260e-02
-8.4628613e-02
-6.6355762e-02
-4.4661127e-02
-2.8519094e-02
-1.9755641e-02
-1.5101567e-02
-1.0591477e-02
-3.3752078e-03
7.8564632e-03
2.2837059e-02
3.9478259e-02
5.3569236e-02
6.1368324e-02
6.3672479e-02
6.7571712e-02
8.1074769e-02
1.0605648e-01
1.4048854e-01
1.7857992e-01
2.0572887e-01
2.0345226e-01
1.6420657e-01
1.0063643e-01
3.7876105e-02
-5.0042234e-03
-2.5048266e-02
-2.8969289e-02
-2.5074937e-02
-2.0829822e-02
-2.1620548e-02
-3.0110021e-02
-4.5466761e-02
-6.3021601e-02
-7.6348927e-02
-8.1039881e-02
-7.6699110e-02
-6.6468276e-02
-5.4406801e-02
-4.2945094e-02
-3.3505216e-02
-2.7195514e-02
-2.4649925e-02
-2.6383285e-02
-3.1866163e-02
-3.8901249e-02
-4.4792677e-02
-4.7499610e-02
-4.6093215e-02
-4.1260459e-02
-3.5072205e-02
-2.9312137e-02
-2.5273945e-02
-2.3665616e-02
-2.4183115e-02
-2.7115539e-02
-3.3044244e-02
-4.1041632e-02
-4.9275896e-02
-5.6402034e-02
-6.1717622e-02
-6.5147239e-02
-6.7235665e-02
-6.8509070e-02
-6.9737748e-02
-7.1632172e-02
-7.3279980e-02
-7.2219695e-02
-6.5726450e-02
-5.2041858e-02
-3.1134826e-02
-4.6553220e-03
2.5235034e-02
5.6644002e-02
8.7271250e-02
1.1539469e-01
1.4174817e-01
1.6928648e-01
2.0061334e-01
2.3648078e-01
2.7635039e-01
3.1464382e-01
3.3539936e-01
3.1769651e-01
2.5296396e-01
1.5575668e-01
5.4299800e-02
-2.8952001e-02
-8.8269885e-02
-1.2884586e-01
-1.5498265e-01
-1.6789852e-01
-1.6927550e-01
-1.6263347e-01
-1.5290105e-01
-1.4323355e-01
-1.3348519e-01
-1.2139196e-01
-1.0459700e-01
-8.3056424e-02
-5.8220905e-02
-3.2124256e-02
-8.8681099e-03
5.4474306e-03
6.5291355e-03
-4.0673125e-03
-1.9482523e-02
-3.2153490e-02
-3.7823934e-02
-3.6251532e-02
-2.9782299e-02
-2.1992065e-02
-1.6026524e-02
-1.2267515e-02
-8.7490557e-03
-3.0756097e-03
6.6377297e-03
1.9570695e-02
3.1849111e-02
4.0075379e-02
4.4671030e-02
4.9718149e-02
5.9244956e-02
7.4373050e-02
9.3359417e-02
1.1380590e-01
1.3358769e-01
1.4855938e-01
1.5022191e-01
1.2763555e-01
7.8999820e-02
1.9441891e-02
-3.0991248e-02
-6.1896070e-02
-7.3438930e-02
-7.1835881e-02
-6.5784832e-02
-6.3249077e-02
-6.7920024e-02
-7.7159085e-02
-8.4749383e-02
-8.5967624e-02
-7.9855807e-02
-6.8441158e-02
-5.5912837e-02
-4.6950190e-02
-4.3809760e-02
-4.4691010e-02
-4.5070382e-02
-4.0789567e-02
-2.9614361e-02
-1.1963057e-02
9.0849197e-03
2.9872728e-02
4.7253901e-02
5.7760775e-02
5.9003317e-02
5.1165888e-02
3.6746002e-02
2.1018846e-02
9.8515246e-03
6.1402574e-03
9.5260005e-03
1.7968518e-02
2.8205774e-02
3.4782866e-02
3.2240082e-02
2.0136728e-02
3.8570021e-03
-1.0148261e-02
-1.8093613e-02
-1.9056520e-02
-1.5807616e-02
-1.3611161e-02
-1.6531241e-02
-2.6435365e-02
-4.2178072e-02
-5.9650559e-02
-7.4711786e-02
-8.3475631e-02
-8.2519966e-02
-7.1869714e-02
-5.4545834e-02
-3.4471794e-02
-1.6233348e-02
-4.0322676e-03
-4.0836824e-04
-4.4799594e-03
-1.1033455e-02
-1.4034278e-02
-9.6395085e-03
3.1545117e-03
2.2213127e-02
4.4062581e-02
6.4894008e-02
8.1260967e-02
9.1729575e-02
9.6395155e-02
9.5453359e-02
8.8875134e-02
7.7858594e-02
6.5358217e-02
5.4838098e-02
4.9111042e-02
4.8629744e-02
5.0720368e-02
5.0074014e-02
4.0233568e-02
1.8236850e-02
-1.1710187e-02
-4.0637295e-02
-6.0707824e-02
-6.9173175e-02
-6.8244640e-02
-6.2290537e-02
-5.4868516e-02
-4.8174088e-02
-4.3164648e-02
-3.9398738e-02
-3.6065689e-02
-3.2828163e-02
-2.9626590e-02
-2.6199092e-02
-2.1716705e-02
-1.5564409e-02
-8.4149622e-03
-1.7665743e-03
2.6804123e-03
4.0895908e-03
4.0206093e-03
5.3465128e-03
9.4294989e-03
1.5469388e-02
2.1313221e-02
2.4660518e-02
2.4832088e-02
2.2855986e-02
2.0242440e-02
1.8244842e-02
1.7939619e-02
2.0354790e-02
2.6466547e-02
3.6160112e-02
4.5735643e-02
4.9968335e-02
4.6217764e-02
3.5137384e-02
2.0752583e-02
6.9798143e-03
-4.1880871e-03
-9.8130963e-03
-8.2393156e-03
-1.4967306e-03
6.5099091e-03
1.2019754e-02
1.3918031e-02
1.2762202e-02
8.5723773e-03
1.7992635e-03
-6.8030064e-03
-1.6834218e-02
-2.8079166e-02
-3.9768052e-02
-4.9760014e-02
-5.6257783e-02
-5.9326646e-02
-6.0477320e-02
-6.1477769e-02
-6.2222290e-02
-6.1634544e-02
-5.9229522e-02
-5.3843519e-02
-4.4566844e-02
-3.1336090e-02
-1.4048690e-02
6.9513478e-03
2.9060427e-02
4.6111925e-02
5.1426854e-02
4.3344123e-02
2.8024200e-02
1.4880370e-02
9.8867601e-03
1.3504210e-02
2.1920476e-02
3.0727944e-02
3.6147644e-02
3.4441722e-02
2.4245075e-02
7.9951471e-03
-8.7422196e-03
-1.9576321e-02
-2.1047503e-02
-1.3877814e-02
-1.2841639e-03
1.2011304e-02
2.0185043e-02
1.9139608e-02
8.9019505e-03
-6.4421203e-03
-2.0198547e-02
-2.6994851e-02
-2.5425265e-02
-1.7305440e-02
-6.5805442e-03
2.4730598e-03
6.0438304e-03
8.1035110e-04
-1.3454148e-02
-3.2616025e-02
-5.0102693e-02
-5.9748590e-02
-5.8803013e-02
-4.8631605e-02
-3.2686996e-02
-1.4988310e-02
4.6860493e-04
1.1297126e-02
1.7068686e-02
1.8573587e-02
1.8068463e-02
1.8018787e-02
2.0134221e-02
2.5787798e-02
3.5747599e-02
4.9956535e-02
6.7291988e-02
8.6529467e-02
1.0581928e-01
1.1969463e-01
1.2032069e-01
1.0383517e-01
7.4408666e-02
4.1852786e-02
1.5976578e-02
1.1183740e-03
-4.6990182e-03
-7.2833049e-03
-1.3012338e-02
-2.4455538e-02
-3.9381164e-02
-5.3588151e-02
-6.3947630e-02
-6.9247789e-02
-6.9579938e-02
-6.5804629e-02
-5.9488192e-02
-5.2279248e-02
-4.5025401e-02
-3.7917982e-02
-2.9999398e-02
-1.9766309e-02
-7.4143816e-03
4.4392496e-03
1.1495901e-02
1.0025450e-02
2.1636222e-04
-1.3712709e-02
-2.6691228e-02
-3.4978933e-02
-3.7039059e-02
-3.4060674e-02
-2.8739120e-02
-2.2937923e-02
-1.7277407e-02
-1.1185619e-02
-3.6766437e-03
4.6009089e-03
1.2224805e-02
1.8369718e-02
2.3253573e-02
2.8482266e-02
3.5260033e-02
4.3722459e-02
5.3983078e-02
6.5606678e-02
7.5293781e-02
7.5111219e-02
5.6331979e-02
1.9199067e-02
-2.3485694e-02
-5.6488090e-02
-7.2408091e-02
-7.2179307e-02
-6.1749814e-02
-4.8465181e-02
-3.8814094e-02
-3.7101049e-02
-4.2979659e-02
-5.2151091e-02
-5.9427255e-02
-6.0447980e-02
-5.3464793e-02
-3.9784004e-02
-2.2698974e-02
-6.2026343e-03
6.8567985e-03
1.7098204e-02
2.8305735e-02
4.3934295e-02
6.5367061e-02
9.0754311e-02
1.1344205e-01
1.2519331e-01
1.2258285e-01
1.0846636e-01
8.8967641e-02
6.9988669e-02
5.3397550e-02
