-1.8998762e-01
-2.1326874e-01
-2.6561386e-01
-3.6308554e-01
-4.9587439e-01
-6.3383941e-01
-7.3859370e-01
-7.8136727e-01
-7.5729508e-01
-6.8105184e-01
-5.7921776e-01
-4.7796803e-01
-3.8947081e-01
-3.1602326e-01
-2.6103393e-01
-2.3261010e-01
-2.3251608e-01
-2.4586046e-01
-2.5574815e-01
-2.5677677e-01
-2.4480066e-01
-2.0834861e-01
-1.3750336e-01
-3.1443059e-02
1.0340071e-01
2.5467032e-01
4.0636383e-01
5.4879428e-01
6.7555049e-01
7.6487560e-01
7.8502836e-01
7.2605122e-01
6.1368024e-01
4.8747041e-01
3.7959614e-01
3.0770332e-01
2.6688921e-01
2.2921949e-01
1.6099020e-01
5.3007460e-02
-6.9841980e-02
-1.7599984e-01
-2.5021655e-01
-2.9391162e-01
-3.1706146e-01
-3.2994157e-01
-3.4046243e-01
-3.5263422e-01
-3.7002053e-01
-3.9835582e-01
-4.3693986e-01
-4.7495951e-01
-4.9942168e-01
-5.0462027e-01
-4.9409938e-01
-4.7533593e-01
-4.5230253e-01
-4.2054645e-01
-3.7008182e-01
-2.9378473e-01
-1.9427740e-01
-8.1732057e-02
3.7570598e-02
1.7124706e-01
3.3874811e-01
5.5555573e-01
8.2083895e-01
1.1111203e+00
1.3600396e+00
1.4553042e+00
1.3096374e+00
9.5719983e-01
5.3965478e-01
1.8995296e-01
-3.5098016e-02
-1.4610317e-01
-1.9256699e-01
-2.2705525e-01
-2.7610602e-01
-3.2805145e-01
-3.5518860e-01
-3.5151537e-01
-3.3108599e-01
-3.0620435e-01
-2.8660103e-01
-2.8547918e-01
-3.1123559e-01
-3.5431149e-01
-3.9138108e-01
-4.0141887e-01
-3.7215350e-01
-3.0395918e-01
-2.1758292e-01
-1.4992075e-01
-1.3141730e-01
-1.6441270e-01
-2.2537593e-01
-2.8636148e-01
-3.3122974e-01
-3.5615753e-01
-3.6051903e-01
-3.3887846e-01
-2.8292515e-01
-1.8882169e-01
-5.9766254e-02
9.6361364e-02
2.7001301e-01
4.5077002e-01
6.1400455e-01
7.0992971e-01
6.9059472e-01
5.5106816e-01
3.3398789e-01
9.3569116e-02
-1.3256162e-01
-3.1409736e-01
-4.1485112e-01
-4.0844928e-01
-2.9922692e-01
-1.1723468e-01
9.9545112e-02
3.1529741e-01
5.0287283e-01
6.5998159e-01
8.0843263e-01
9.5272669e-01
1.0519241e+00
1.0560536e+00
9.5903675e-01
7.7379809e-01
4.9527544e-01
1.4363235e-01
-2.2236958e-01
-5.4848900e-01
-8.0143180e-01
-9.7007206e-01
-1.0586013e+00
-1.0737119e+00
-1.0278018e+00
-9.3824332e-01
-8.1793704e-01
-6.7737045e-01
-5.3453908e-01
-4.0993017e-01
-3.0658268e-01
-2.0562542e-01
-8.5087342e-02
6.0987729e-02
2.2364314e-01
3.9133129e-01
5.5663636e-01
7.1555609e-01
8.4678815e-01
8.9340981e-01
7.9970407e-01
5.7935320e-01
3.2042130e-01
1.1391685e-01
3.9993999e-03
-1.2531605e-02
2.7685668e-02
7.2840947e-02
7.8935546e-02
3.8733801e-02
-2.1270536e-02
-7.5580456e-02
-1.1565788e-01
-1.4496503e-01
-1.6719241e-01
-1.8036080e-01
-1.8587896e-01
-1.9650612e-01
-2.2705745e-01
-2.7872049e-01
-3.3733626e-01
-3.8047581e-01
-3.8767881e-01
-3.5213807e-01
-2.8351232e-01
-2.0377962e-01
-1.3758988e-01
-9.7610558e-02
-7.8710209e-02
-6.6043127e-02
-4.8037789e-02
-2.0136715e-02
2.5789861e-02
1.0528910e-01
2.2370551e-01
3.5465713e-01
4.4680922e-01
4.6688673e-01
4.2656851e-01
3.5950329e-01
2.9357598e-01
2.4392242e-01
2.1543798e-01
2.0676160e-01
2.1102894e-01
2.1337615e-01
1.9027951e-01
1.1976175e-01
-4.1511320e-03
-1.6436817e-01
-3.3071891e-01
-4.7806277e-01
-5.9190369e-01
-6.6674378e-01
-7.0445768e-01
-7.1099719e-01
-6.9530444e-01
-6.6862520e-01
-6.3750540e-01
-5.9933082e-01
-5.4761147e-01
-4.7537040e-01
-3.7522918e-01
-2.4119143e-01
-7.0581281e-02
1.3621630e-01
3.8025836e-01
6.6564367e-01
9.9663402e-01
1.3704222e+00
1.7388197e+00
1.9619522e+00
1.8707073e+00
1.4251668e+00
7.7522921e-01
1.3913408e-01
-3.4513872e-01
-6.4520111e-01
-7.8455359e-01
-8.0283455e-01
-7.4082751e-01
-6.3144997e-01
-5.0757925e-01
-4.1747754e-01
-3.9505186e-01
-4.2152243e-01
-4.4063541e-01
-4.0913308e-01
-3.2611224e-01
-2.1418787e-01
-8.1795509e-02
8.5594391e-02
3.0442584e-01
5.7411720e-01
8.6273786e-01
1.0956258e+00
1.1778256e+00
1.0617541e+00
7.9560747e-01
4.7659983e-01
1.6462991e-01
-1.4185478e-01
-4.4878954e-01
-7.1974819e-01
-9.1186237e-01
-1.0040145e+00
-9.9480385e-01
-9.0688257e-01
-7.6832398e-01
-5.9255000e-01
-3.8926623e-01
-1.8396714e-01
-1.7989031e-02
8.2709489e-02
1.3219130e-01
1.6145829e-01
1.8878939e-01
2.1197509e-01
2.1730058e-01
1.9405523e-01
1.3723199e-01
5.5367616e-02
-2.2248021e-02
-6.2975628e-02
-5.4762125e-02
-1.3206819e-02
2.5187763e-02
2.3469490e-02
-2.9294214e-02
-1.1193837e-01
-1.9070775e-01
-2.4388709e-01
-2.6920545e-01
-2.7375370e-01
-2.6045336e-01
-2.2653098e-01
-1.7376309e-01
-1.1078550e-01
-4.3256228e-02
3.0502917e-02
1.1242442e-01
2.0652253e-01
3.2587506e-01
4.8294798e-01
6.7794186e-01
8.9292929e-01
1.0732464e+00
1.1238433e+00
9.6602872e-01
6.1382349e-01
1.7670439e-01
-2.1941507e-01
-4.9756481e-01
-6.3557487e-01
-6.4547722e-01
-5.5687461e-01
-4.0968356e-01
-2.4102888e-01
-8.3212115e-02
2.5014484e-02
5.3345587e-02
8.2160211e-03
-6.8315487e-02
-1.2885080e-01
-1.4514681e-01
-1.1378122e-01
-5.5018062e-02
1.4213872e-03
3.9776677e-02
6.7631676e-02
9.7444766e-02
1.2118493e-01
1.1608171e-01
6.8108233e-02
-1.8402867e-02
-1.2810721e-01
-2.4480387e-01
-3.5358257e-01
-4.3789197e-01
-4.8136497e-01
-4.7696313e-01
-4.3122532e-01
-3.5868121e-01
-2.7293755e-01
-1.7971664e-01
-7.3581522e-02
5.3794296e-02
2.0163425e-01
3.6545891e-01
5.4491092e-01
7.2802192e-01
8.6448887e-01
8.7859441e-01
7.3806202e-01
4.9454516e-01
2.3641282e-01
2.5168602e-02
-1.2233858e-01
-2.1844870e-01
-2.8396611e-01
-3.3580571e-01
-3.7388320e-01
-3.8622207e-01
-3.7497282e-01
-3.6218420e-01
-3.7179251e-01
-4.1048518e-01
-4.6053190e-01
-4.9197058e-01
-4.8634357e-01
-4.4809193e-01
-3.9345880e-01
-3.3129616e-01
-2.5601576e-01
-1.6258115e-01
-6.5495525e-02
7.9034694e-03
5.0724794e-02
9.3823974e-02
1.8329644e-01
3.5386965e-01
6.1373690e-01
9.2397247e-01
1.1816137e+00
1.2655486e+00
1.1512847e+00
9.4544176e-01
7.7739351e-01
6.9237699e-01
6.3370701e-01
5.3913834e-01
4.1450554e-01
2.7001572e-01
1.0061035e-01
-8.8684027e-02
-2.9435197e-01
-5.0626547e-01
-6.9365821e-01
-8.1728551e-01
-8.5664527e-01
-8.2334793e-01
-7.4775363e-01
-6.5646826e-01
-5.6738178e-01
-4.9812830e-01
-4.6340626e-01
-4.6579556e-01
-4.9057474e-01
-5.1086819e-01
-5.0890191e-01
-4.8755036e-01
-4.5635906e-01
-4.1694915e-01
-3.6627781e-01
-3.0375657e-01
-2.3117570e-01
-1.5010782e-01
-6.0845330e-02
3.6991992e-02
1.4531188e-01
2.6807306e-01
4.0805955e-01
5.6818861e-01
7.5703781e-01
9.8527786e-01
1.2501886e+00
1.5087851e+00
1.6666853e+00
1.6360381e+00
1.4215980e+00
1.1117441e+00
7.7817051e-01
4.2568593e-01
4.3097037e-02
-3.3868655e-01
-6.6021990e-01
-8.8268620e-01
-1.0001903e+00
-1.0343895e+00
-1.0346563e+00
-1.0507061e+00
-1.0957031e+00
-1.1498289e+00
-1.1873565e+00
-1.1862767e+00
-1.1364347e+00
-1.0457750e+00
-9.3035577e-01
-8.0513275e-01
-6.7857542e-01
-5.5139999e-01
-4.1957644e-01
-2.7547733e-01
-1.0903088e-01
9.0527160e-02
3.3253136e-01
6.1662318e-01
9.2148206e-01
1.2184751e+00
1.5072190e+00
1.8202347e+00
2.1802647e+00
2.5288422e+00
2.6919048e+00
2.4917569e+00
1.9254383e+00
1.1826460e+00
4.7868406e-01
-8.4325327e-02
-5.0119275e-01
-7.9441702e-01
-9.8855012e-01
-1.1100711e+00
-1.1734347e+00
-1.1777809e+00
-1.1337598e+00
-1.0711322e+00
-1.0184550e+00
-9.8763762e-01
-9.7253095e-01
-9.5802658e-01
-9.2902094e-01
-8.7785931e-01
-8.0562709e-01
-7.1507576e-01
-6.0979446e-01
-5.0368060e-01
-4.2279306e-01
-3.8200637e-01
-3.6419176e-01
-3.4003550e-01
-3.0160766e-01
-2.5628171e-01
-2.0283757e-01
-1.2787841e-01
-1.5953096e-02
1.4086714e-01
3.4073663e-01
5.7231207e-01
8.1621420e-01
1.0513211e+00
1.2553843e+00
1.3829085e+00
1.3577303e+00
1.1347596e+00
7.7665050e-01
4.3029100e-01
2.1609975e-01
1.6628804e-01
2.3999757e-01
3.5043400e-01
3.9768170e-01
3.1946306e-01
1.4574590e-01
-1.5919063e-02
-6.9906257e-02
9.5782358e-03
1.7805749e-01
3.5260475e-01
4.3937470e-01
3.5012623e-01
6.3323986e-02
-3.3141680e-01
-6.9356691e-01
-9.2092947e-01
-9.8273087e-01
-9.0719321e-01
-7.5542618e-01
-5.9591362e-01
-4.7090705e-01
-3.8224371e-01
-3.2111160e-01
-2.9719139e-01
-3.2412328e-01
-3.8289460e-01
-4.2257128e-01
-3.9905723e-01
-3.0149176e-01
-1.4292977e-01
6.1052370e-02
2.9566452e-01
5.3798206e-01
7.3620114e-01
8.1693978e-01
7.5375679e-01
6.0593723e-01
4.6619348e-01
3.8374834e-01
3.4365453e-01
3.0527873e-01
2.5029854e-01
1.9280818e-01
1.5677824e-01
1.5678492e-01
1.8309573e-01
1.9731889e-01
1.5650529e-01
5.0430923e-02
-9.1235381e-02
-2.2801245e-01
-3.3223451e-01
-3.9552851e-01
-4.2417921e-01
-4.3282757e-01
-4.4367393e-01
-4.7136439e-01
-5.0944526e-01
-5.3858366e-01
-5.3795158e-01
-4.9647606e-01
-4.2863334e-01
-3.7259308e-01
-3.5886322e-01
-3.8336334e-01
-4.1365696e-01
-4.1634316e-01
-3.7224777e-01
-2.7549004e-01
-1.3181707e-01
4.1771067e-02
2.2193187e-01
3.9718847e-01
5.8031660e-01
7.9409693e-01
1.0502311e+00
1.3344627e+00
1.5869086e+00
1.7024983e+00
1.5915745e+00
1.2604700e+00
8.1760659e-01
3.9018891e-01
4.7343930e-02
-2.0310716e-01
-3.7801645e-01
-4.9600547e-01
-5.7682874e-01
-6.3088897e-01
-6.5405686e-01
-6.4454014e-01
-6.0650257e-01
-5.4352879e-01
-4.6609915e-01
-3.9531871e-01
-3.4431891e-01
-3.0577090e-01
-2.6651388e-01
-2.2742971e-01
-1.9878004e-01
-1.8015808e-01
-1.5963074e-01
-1.2913811e-01
-9.0874329e-02
-5.6101874e-02
-4.1054405e-02
-5.7433025e-02
-1.0387014e-01
-1.6598571e-01
-2.2977756e-01
-2.9128967e-01
-3.4719359e-01
-3.8493785e-01
-3.8857827e-01
-3.5140197e-01
-2.7918685e-01
-1.8388769e-01
-7.7086676e-02
3.3479368e-02
1.4659240e-01
2.6631473e-01
3.9007310e-01
4.9487007e-01
5.4453627e-01
5.2310799e-01
4.5462223e-01
3.7966469e-01
3.2212462e-01
2.8583500e-01
2.7207491e-01
2.7742831e-01
2.7837692e-01
2.5501612e-01
2.2740345e-01
2.3534460e-01
2.8637307e-01
3.4810333e-01
3.7674013e-01
3.3320439e-01
2.0605420e-01
2.8568814e-02
-1.5511272e-01
-3.3065028e-01
-5.0330193e-01
-6.6389137e-01
-7.8099298e-01
-8.2299292e-01
-7.8331886e-01
-6.8304961e-01
-5.5454274e-01
-4.2934021e-01
-3.3243668e-01
-2.7019719e-01
-2.2560242e-01
-1.7383062e-01
-1.0004641e-01
-1.7356651e-03
1.2707141e-01
3.0260977e-01
5.3299672e-01
8.0134371e-01
1.0565391e+00
1.2156361e+00
1.2046700e+00
1.0221819e+00
7.4608893e-01
4.6649689e-01
2.3130878e-01
4.3068072e-02
-1.1140306e-01
-2.3634601e-01
-3.3386379e-01
-4.0578018e-01
-4.5207721e-01
-4.8045705e-01
-5.0014909e-01
-5.0870551e-01
-4.9515867e-01
-4.5511526e-01
-3.9746790e-01
-3.3630387e-01
-2.8310144e-01
-2.4298016e-01
-2.1176634e-01
-1.7825201e-01
-1.3018897e-01
-6.4328775e-02
8.0569296e-03
6.6959426e-02
9.1453665e-02
6.7576965e-02
-1.8495861e-03
-9.0253790e-02
-1.5663130e-01
-1.6917717e-01
-1.2086552e-01
-2.9570523e-02
7.6162621e-02
1.7579342e-01
2.6228469e-01
3.3750098e-01
4.0200084e-01
4.4821635e-01
4.7285799e-01
4.8871235e-01
5.0884378e-01
5.1759396e-01
4.7039317e-01
3.4059980e-01
1.5579836e-01
-3.0156012e-02
-1.7927653e-01
-2.7475131e-01
-3.1191839e-01
-2.9643981e-01
-2.4297155e-01
-1.6908552e-01
-9.4487492e-02
-4.3540185e-02
-3.3971849e-02
-6.0593404e-02
-9.6026848e-02
-1.1233355e-01
-1.0263380e-01
-8.1680127e-02
-7.0003840e-02
-7.5302042e-02
-8.8227730e-02
-9.5439256e-02
-9.5317040e-02
-9.9987843e-02
-1.2155204e-01
-1.6382821e-01
-2.2367721e-01
-2.8950924e-01
-3.4171868e-01
-3.6460360e-01
-3.5903386e-01
-3.3886356e-01
-3.1543708e-01
-2.8712379e-01
-2.4217096e-01
-1.7024781e-01
-7.0638520e-02
4.5164456e-02
1.5550080e-01
2.3865367e-01
2.8676103e-01
3.1425993e-01
3.4744507e-01
4.0308003e-01
4.8550120e-01
5.9755960e-01
7.2729516e-01
8.2461512e-01
8.2715157e-01
7.2220560e-01
5.6253181e-01
4.0806897e-01
2.7507521e-01
1.5211927e-01
3.7124172e-02
-6.5885750e-02
-1.7240199e-01
-3.0331831e-01
-4.4072085e-01
-5.4290834e-01
-6.0567699e-01
-6.5360621e-01
-6.9311897e-01
-7.0580092e-01
-6.6502712e-01
-5.5769216e-01
-4.0002955e-01
-2.3866710e-01
-1.3449865e-01
-1.1909842e-01
-1.6616822e-01
-2.2631280e-01
-2.7232835e-01
-3.0382311e-01
-3.2002111e-01
-3.0409433e-01
-2.4380385e-01
-1.4362753e-01
-9.0140983e-03
1.6391858e-01
3.7960458e-01
6.3143224e-01
8.9512719e-01
1.1337680e+00
1.3185183e+00
1.4407459e+00
1.4903552e+00
1.4233205e+00
1.1835918e+00
7.7864339e-01
3.0694944e-01
-1.1450657e-01
-4.2737482e-01
-6.3056908e-01
-7.4467362e-01
-7.9293507e-01
-7.9592372e-01
-7.6657192e-01
-7.1672737e-01
-6.6611119e-01
-6.2564252e-01
-5.8442841e-01
-5.2770910e-01
-4.5612537e-01
-3.7880155e-01
-2.9843141e-01
-2.1155365e-01
-1.1827641e-01
-2.5334974e-02
5.6495958e-02
1.1074499e-01
1.1790197e-01
7.1277889e-02
-1.2949824e-02
-1.0734768e-01
-1.9182117e-01
-2.5840412e-01
-3.0450182e-01
-3.2898024e-01
-3.3116520e-01
-3.0965226e-01
-2.6359039e-01
-1.9565452e-01
-1.1460952e-01
-3.4205422e-02
3.4045820e-02
8.8467238e-02
1.3537627e-01
1.8309150e-01
2.3990975e-01
3.0644857e-01
3.6605953e-01
3.9614944e-01
4.0330860e-01
4.3534771e-01
5.4309213e-01
7.4047668e-01
9.8146946e-01
1.1535803e+00
1.1361101e+00
8.9765235e-01
5.2705928e-01
1.6225130e-01
-1.0520555e-01
-2.6505812e-01
-3.6364943e-01
-4.4722001e-01
-5.1936922e-01
-5.5775255e-01
-5.4983794e-01
-5.0621911e-01
-4.5720555e-01
-4.3326778e-01
-4.3897235e-01
-4.5355878e-01
-4.5709466e-01
-4.4348907e-01
-4.1545044e-01
-3.7266433e-01
-3.0555557e-01
-2.0576693e-01
-8.0873626e-02
3.9312546e-02
1.1667388e-01
1.3787029e-01
1.3238580e-01
1.4708056e-01
1.9803581e-01
2.5476680e-01
2.7025852e-01
2.2045595e-01
1.2170102e-01
1.5915547e-02
-5.7789323e-02
-7.6820799e-02
-3.7898019e-02
4.3881517e-02
1.4954115e-01
2.6915135e-01
3.8993470e-01
4.7919041e-01
5.0920342e-01
5.0547274e-01
5.3181105e-01
6.1141201e-01
6.9261955e-01
7.2727380e-01
7.0101982e-01
5.6375216e-01
2.7359864e-01
-1.1860159e-01
-5.0376043e-01
-7.9287748e-01
-9.5415893e-01
-1.0008812e+00
-9.6810065e-01
-8.9902616e-01
-8.2151462e-01
-7.2800378e-01
-5.9528702e-01
-4.1345694e-01
-1.9575207e-01
2.1443428e-02
1.9447132e-01
2.9940346e-01
3.4420547e-01
3.5204498e-01
3.3190058e-01
2.7248618e-01
1.7364989e-01
7.4182099e-02
2.9014670e-02
6.7408520e-02
1.7700736e-01
3.0693709e-01
3.9118873e-01
3.9230927e-01
3.3122908e-01
2.6153315e-01
2.1147479e-01
1.6597183e-01
1.0076398e-01
2.1152180e-02
-3.9335336e-02
-5.1365708e-02
-1.5086395e-02
3.7931175e-02
6.3094789e-02
2.9029089e-02
-5.9423409e-02
-1.6663237e-01
-2.5840769e-01
-3.1766627e-01
-3.4187233e-01
-3.3827798e-01
-3.1723795e-01
-2.9049267e-01
-2.6922032e-01
-2.6024473e-01
-2.6166081e-01
-2.5727680e-01
-2.2495384e-01
-1.5861070e-01
-8.2237945e-02
-3.1887336e-02
-1.7085210e-02
-1.4499086e-02
1.0980282e-03
3.6720418e-02
8.4361429e-02
1.2848489e-01
1.5316575e-01
1.5438846e-01
1.4852418e-01
1.6282057e-01
2.1064582e-01
2.7640457e-01
3.2849848e-01
3.4896671e-01
3.4960691e-01
3.5652312e-01
3.8604137e-01
4.3400348e-01
4.7533787e-01
4.7140058e-01
3.9289139e-01
2.4199304e-01
5.1947753e-02
-1.2960152e-01
-2.6603149e-01
-3.4778601e-01
-3.8735114e-01
-4.0558920e-01
-4.2051395e-01
-4.4287033e-01
-4.7600331e-01
-5.1605355e-01
-5.5205582e-01
-5.6807146e-01
-5.4909973e-01
-4.8534715e-01
-3.7365436e-01
-2.2195810e-01
-5.6624598e-02
8.1336502e-02
1.6180146e-01
1.8238347e-01
1.5824657e-01
1.1182226e-01
6.8413207e-02
4.9027346e-02
6.3357930e-02
1.1073943e-01
1.8857113e-01
2.9262674e-01
4.0611286e-01
4.9927163e-01
5.4693608e-01
5.3931857e-01
4.7711800e-01
3.6872983e-01
2.3680524e-01
1.2171810e-01
6.3305448e-02
7.4355612e-02
1.3803948e-01
2.2230600e-01
2.8533269e-01
2.7947356e-01
1.8510465e-01
3.8482526e-02
-1.0375417e-01
-2.2377326e-01
-3.5672500e-01
-5.2638389e-01
-7.0280963e-01
-8.5108121e-01
-9.5043210e-01
-9.8642250e-01
-9.6054885e-01
-8.7607708e-01
-7.2755863e-01
-5.1132827e-01
-2.3799124e-01
6.0795872e-02
3.3869529e-01
5.4420780e-01
6.3435417e-01
6.0245457e-01
4.9703194e-01
4.0332209e-01
3.9272469e-01
4.8439095e-01
6.3561150e-01
7.6311621e-01
7.9787278e-01
7.2337885e-01
5.7078264e-01
3.8838182e-01
2.0873880e-01
4.1739410e-02
-1.0836585e-01
-2.2641288e-01
-2.9193118e-01
-3.0438778e-01
-2.9131817e-01
-2.9113128e-01
-3.2788628e-01
-3.9497765e-01
-4.6586200e-01
-5.1652217e-01
-5.3660865e-01
-5.2783201e-01
-4.9925344e-01
-4.6169936e-01
-4.2023084e-01
-3.7209919e-01
-3.0983081e-01
-2.2215056e-01
-9.8384213e-02
6.1637483e-02
2.4479182e-01
4.2826688e-01
5.8844704e-01
7.1498010e-01
8.1245320e-01
8.7747387e-01
8.7811651e-01
7.7388320e-01
5.6144429e-01
2.9303515e-01
4.3068090e-02
-1.3467120e-01
-2.2277174e-01
-2.4046326e-01
-2.3348233e-01
-2.4407422e-01
-2.7828700e-01
-3.1538873e-01
-3.4333192e-01
-3.6528031e-01
-3.8211047e-01
-3.7989646e-01
-3.3658165e-01
-2.3890730e-01
-8.8199806e-02
9.8487323e-02
2.8637098e-01
4.3490340e-01
5.1934675e-01
5.3485999e-01
4.8126869e-01
3.5519539e-01
1.6172347e-01
-6.7322719e-02
-2.7751865e-01
-4.2150750e-01
-4.8331378e-01
-4.7860132e-01
-4.3918812e-01
-3.9513677e-01
-3.5549719e-01
-3.0684738e-01
-2.3317585e-01
-1.2598202e-01
1.5454489e-02
1.7893839e-01
3.3386782e-01
4.3780813e-01
4.6276064e-01
4.1490429e-01
3.2030243e-01
2.0316376e-01
8.3381516e-02
-2.0065213e-02
-9.5708139e-02
-1.4839849e-01
-1.9288679e-01
-2.3778658e-01
-2.7953633e-01
-3.0693255e-01
-3.0683585e-01
-2.7200985e-01
-2.0773556e-01
-1.2748539e-01
-4.4823881e-02
2.7862237e-02
8.0747417e-02
1.1435223e-01
1.5035301e-01
2.2981021e-01
3.8637508e-01
6.1932851e-01
8.8150666e-01
1.0797950e+00
1.1089525e+00
9.1897592e-01
5.6449391e-01
1.6876304e-01
-1.7245285e-01
-4.4651489e-01
-7.0443671e-01
-9.7404914e-01
-1.2140961e+00
-1.3762776e+00
-1.4412072e+00
-1.4086745e+00
-1.2960008e+00
-1.1213457e+00
-8.8977533e-01
-5.9614036e-01
-2.3412988e-01
1.9354695e-01
6.6464804e-01
1.1015125e+00
1.3638826e+00
1.3553591e+00
1.1390527e+00
8.9243755e-01
7.5903663e-01
7.8252104e-01
9.1762782e-01
1.0488832e+00
1.0423431e+00
8.3000065e-01
4.6704876e-01
8.2190191e-02
-2.2815253e-01
-4.3781979e-01
-5.6975070e-01
-6.6355350e-01
-7.3612141e-01
-7.6851376e-01
-7.3454033e-01
-6.3728049e-01
-5.2204715e-01
-4.4559477e-01
-4.2835310e-01
-4.4600009e-01
-4.6377162e-01
-4.6372649e-01
-4.4409942e-01
-4.0487031e-01
-3.3546093e-01
-2.1965901e-01
-4.8286308e-02
1.7669029e-01
4.4415411e-01
7.3611056e-01
1.0242955e+00
1.2525827e+00
1.3359871e+00
1.2175590e+00
9.2931492e-01
5.6664129e-01
2.1198306e-01
-9.6186550e-02
-3.4575086e-01
-5.2566054e-01
-6.2539366e-01
-6.5184966e-01
-6.2432257e-01
-5.6244150e-01
-4.8796888e-01
-4.2021676e-01
-3.6216682e-01
-3.0200293e-01
-2.2800160e-01
-1.3243548e-01
-1.3541703e-02
1.1753554e-01
2.3891399e-01
3.3128316e-01
3.9191382e-01
4.2602600e-01
4.2251504e-01
3.5475029e-01
2.1091555e-01
1.1876923e-02
-2.0095374e-01
-3.8456487e-01
-5.1184453e-01
-5.7963519e-01
-6.0039111e-01
-5.8843731e-01
-5.5188939e-01
-4.9673178e-01
-4.2986496e-01
-3.5072874e-01
-2.5067971e-01
-1.2677626e-01
1.0495236e-02
1.4662112e-01
2.7416814e-01
3.8521791e-01
4.5728364e-01
4.6202460e-01
3.9539841e-01
2.9086989e-01
1.9283819e-01
1.2956805e-01
1.1370265e-01
1.4362856e-01
1.9743074e-01
2.3908769e-01
2.4223765e-01
2.0273616e-01
1.3222617e-01
5.6164779e-02
1.6871029e-03
-2.4925093e-02
-4.7915522e-02
-1.0791529e-01
-2.1813870e-01
-3.4265355e-01
-4.3134248e-01
-4.5745573e-01
-4.2335235e-01
-3.4409197e-01
-2.2900343e-01
-7.8385402e-02
1.1231462e-01
3.3888981e-01
5.6555813e-01
7.2891715e-01
7.9399810e-01
7.9843915e-01
8.1303305e-01
8.6949155e-01
9.2897053e-01
9.1456185e-01
7.5628396e-01
4.3174862e-01
1.4034478e-02
-3.7712227e-01
-6.7727193e-01
-8.8696360e-01
-1.0189712e+00
-1.0664969e+00
-1.0177956e+00
-8.8506235e-01
-7.0066022e-01
-4.9569308e-01
-2.8919358e-01
-8.6185280e-02
1.0963682e-01
2.7569942e-01
3.7197677e-01
3.6879002e-01
2.7450445e-01
1.3710256e-01
1.1908617e-02
-7.4037793e-02
-1.2510319e-01
-1.5872780e-01
-1.9018914e-01
-2.2682496e-01
-2.6547866e-01
-2.9652990e-01
-3.1584616e-01
-3.2640758e-01
-3.3260426e-01
-3.3810732e-01
-3.4034203e-01
-3.2774921e-01
-2.9025242e-01
-2.2838697e-01
-1.4777590e-01
-4.8723316e-02
7.5968807e-02
2.3461669e-01
4.2903414e-01
6.5708671e-01
9.1507016e-01
1.1685299e+00
1.3154274e+00
1.2333950e+00
9.0831512e-01
4.7418028e-01
9.7054971e-02
-1.3290588e-01
-2.0875788e-01
-1.7780001e-01
-1.1867140e-01
-1.0734007e-01
-1.6094501e-01
-2.3360932e-01
-2.7546179e-01
-2.6389107e-01
-2.0099570e-01
-1.0183156e-01
2.8432724e-02
2.0125471e-01
4.2103720e-01
6.4602912e-01
7.7913875e-01
7.4234853e-01
5.6136650e-01
3.2630842e-01
9.4408551e-02
-1.2315761e-01
-3.2559489e-01
-5.1163021e-01
-6.8008579e-01
-8.2071821e-01
-9.1286998e-01
-9.5111019e-01
-9.6344983e-01
-9.8374131e-01
-1.0182595e+00
-1.0520549e+00
-1.0743223e+00
-1.0807040e+00
-1.0602672e+00
-1.0003159e+00
-8.9886044e-01
-7.6121777e-01
-5.8821100e-01
-3.6867008e-01
-8.1289559e-02
2.8946428e-01
7.3457886e-01
1.2139770e+00
1.6741286e+00
2.0845955e+00
2.4373203e+00
2.6798441e+00
2.6773209e+00
2.2987570e+00
1.5600020e+00
6.5867744e-01
-1.5978033e-01
-7.5187566e-01
-1.0926193e+00
-1.2219335e+00
-1.2212582e+00
-1.1933767e+00
-1.1969252e+00
-1.2207026e+00
-1.2317360e+00
-1.2021958e+00
-1.1134269e+00
-9.5920577e-01
-7.4052964e-01
-4.6479735e-01
-1.4100389e-01
2.2373301e-01
6.0960161e-01
9.7004421e-01
1.2459724e+00
1.3854593e+00
1.3524154e+00
1.1507367e+00
8.4405865e-01
5.3302745e-01
3.0426485e-01
1.8836539e-01
1.4585832e-01
1.2542851e-01
1.1653789e-01
1.0610910e-01
6.9051135e-02
-8.4683994e-04
-9.7485899e-02
-2.1034393e-01
-3.2437191e-01
-4.2311295e-01
-4.9234494e-01
-5.2429010e-01
-5.1815273e-01
-4.7645923e-01
-4.0866558e-01
-3.3656751e-01
-2.8909591e-01
-2.8826892e-01
-3.3682538e-01
-4.2090487e-01
-5.1841131e-01
-6.0098456e-01
-6.4262589e-01
-6.3513749e-01
-5.8963554e-01
-5.2139050e-01
-4.3387139e-01
-3.1526357e-01
-1.4785313e-01
7.9214568e-02
3.6126825e-01
6.8411140e-01
1.0324931e+00
1.3666716e+00
1.5873396e+00
1.5715414e+00
1.2873518e+00
8.5005816e-01
4.2998473e-01
1.3251714e-01
-3.0072634e-02
-9.9723130e-02
-1.2428777e-01
-1.3288911e-01
-1.3048484e-01
-1.1797482e-01
-1.1973446e-01
-1.6921551e-01
-2.6731094e-01
-3.7358429e-01
-4.4094675e-01
-4.4346315e-01
-3.8117404e-01
-2.8415946e-01
-2.0442265e-01
-1.7710684e-01
-1.8943026e-01
-2.0626588e-01
-2.1602727e-01
-2.3298110e-01
-2.7192227e-01
-3.3251867e-01
-3.9966362e-01
-4.5203097e-01
-4.7247170e-01
-4.5341211e-01
-3.9710273e-01
-3.1642715e-01
-2.2826556e-01
-1.4056435e-01
-4.5268593e-02
7.5499274e-02
2.3369281e-01
4.2242585e-01
6.1775164e-01
7.9445293e-01
9.4041216e-01
1.0479960e+00
1.0921081e+00
1.0439991e+00
9.0548103e-01
7.0634472e-01
4.7770620e-01
2.4088348e-01
1.9212805e-02
-1.5441741e-01
-2.5513113e-01
-2.7977658e-01
-2.3987704e-01
-1.6119852e-01
-9.3963566e-02
-9.7176002e-02
-1.8865813e-01
-3.2653168e-01
-4.4987528e-01
-5.1737910e-01
-5.1560669e-01
-4.5490668e-01
-3.6037827e-01
-2.5905984e-01
-1.6859068e-01
-1.0273672e-01
-8.2364429e-02
-1.2240499e-01
-2.1189804e-01
-3.1939576e-01
-4.1504622e-01
-4.7999900e-01
-5.0816984e-01
-5.0811945e-01
-4.9697901e-01
-4.9155908e-01
-4.9790734e-01
-5.0986020e-01
-5.1420267e-01
-4.8819699e-01
-4.0632891e-01
-2.5708086e-01
-4.7742393e-02
2.1074096e-01
5.1756107e-01
8.5977570e-01
1.1688000e+00
1.3241980e+00
1.2478637e+00
9.9338203e-01
7.0493892e-01
5.1145565e-01
4.5556558e-01
5.0111669e-01
6.0027215e-01
7.0424935e-01
7.4505321e-01
6.6870189e-01
4.7317846e-01
2.1199012e-01
-3.5739816e-02
-2.0523192e-01
-2.6676874e-01
-2.2780204e-01
-1.2662307e-01
-2.1733184e-02
2.3064568e-02
-3.9589210e-02
-2.0911371e-01
-4.2725889e-01
-6.1616827e-01
-7.2622508e-01
-7.5359996e-01
-7.2379979e-01
-6.6808487e-01
-6.1411969e-01
-5.7203704e-01
-5.2813116e-01
-4.6256710e-01
-3.6306894e-01
-2.2888954e-01
-7.7431816e-02
5.7185644e-02
1.4725731e-01
1.9635157e-01
2.3524332e-01
2.9088910e-01
3.6572574e-01
4.3854012e-01
4.7234991e-01
4.3019100e-01
2.9971578e-01
1.1444549e-01
-6.2616449e-02
-1.8469421e-01
-2.3660861e-01
-2.2004117e-01
-1.5295398e-01
-7.4994353e-02
-2.8428330e-02
-2.8609624e-02
-5.9803421e-02
-9.7526679e-02
-1.2278973e-01
-1.2306317e-01
-9.2553959e-02
-3.3308785e-02
4.2132749e-02
1.2003058e-01
1.9871417e-01
2.9166784e-01
4.2044061e-01
5.8837960e-01
7.5435546e-01
8.4739581e-01
8.2240675e-01
6.9530852e-01
5.0144667e-01
2.4302750e-01
-8.6828424e-02
-4.5931954e-01
-8.1011883e-01
-1.0744652e+00
-1.2233954e+00
-1.2689339e+00
-1.2461186e+00
-1.1940966e+00
-1.1412595e+00
-1.0889728e+00
-1.0163752e+00
-9.0610318e-01
-7.4447727e-01
-5.1058123e-01
-1.9733170e-01
1.5905821e-01
4.9283997e-01
7.6726516e-01
1.0092720e+00
1.2704581e+00
1.5830372e+00
1.9530145e+00
2.3347386e+00
2.5831796e+00
2.4893963e+00
1.9551117e+00
1.1290858e+00
2.9657273e-01
-3.4042978e-01
-7.2111948e-01
-8.6461361e-01
-8.3738098e-01
-7.4144929e-01
-6.6983636e-01
-6.7286325e-01
-7.6508420e-01
-9.2247160e-01
-1.0907980e+00
-1.2169033e+00
-1.2686967e+00
-1.2390236e+00
-1.1418687e+00
-1.0049828e+00
-8.5905949e-01
-7.2601042e-01
-6.0764443e-01
-4.9332810e-01
-3.7745331e-01
-2.5356459e-01
-1.0645105e-01
8.0749901e-02
3.1760397e-01
6.0627723e-01
9.4362652e-01
1.2977483e+00
1.5721384e+00
1.6362016e+00
1.4511680e+00
1.1314100e+00
8.3672187e-01
6.4964181e-01
5.3621897e-01
4.4017413e-01
3.7585159e-01
3.3957759e-01
2.7312002e-01
1.4166225e-01
-3.3208069e-02
-1.9123515e-01
-2.8101134e-01
-2.9339679e-01
-2.5823682e-01
-2.2413240e-01
-2.2589169e-01
-2.6713153e-01
-3.4084757e-01
-4.4856514e-01
-5.8899983e-01
-7.4147563e-01
-8.7078983e-01
-9.4627287e-01
-9.6181244e-01
-9.3498279e-01
-8.8653392e-01
-8.3037549e-01
-7.7146405e-01
-7.0376687e-01
-6.1353949e-01
-4.8803444e-01
-3.2653996e-01
-1.4092232e-01
5.9274937e-02
2.7822458e-01
5.3206052e-01
8.3750064e-01
1.1985688e+00
1.6065170e+00
2.0318728e+00
2.3735351e+00
2.4435222e+00
2.0911698e+00
1.3579903e+00
4.7513525e-01
-3.0362720e-01
-8.4587551e-01
-1.1336742e+00
-1.2047508e+00
-1.1381784e+00
-1.0371391e+00
-9.6681052e-01
-9.3053727e-01
-9.1540681e-01
-9.1455702e-01
-9.1241760e-01
-8.7825310e-01
-7.7781687e-01
-5.9159303e-01
-3.2060344e-01
2.3501736e-02
4.2647653e-01
8.6931485e-01
1.3168576e+00
1.6774252e+00
1.7920861e+00
1.5482962e+00
1.0140546e+00
3.9850201e-01
-1.1372494e-01
-4.4881595e-01
-6.2187731e-01
-6.8670045e-01
-6.9942336e-01
-7.0319536e-01
-7.0893155e-01
-6.9913988e-01
-6.5482236e-01
-5.5829120e-01
-3.9393749e-01
-1.6892235e-01
6.6107592e-02
2.3067819e-01
2.8246152e-01
2.6130996e-01
2.4254881e-01
2.7884475e-01
3.8499249e-01
5.3596009e-01
6.6371976e-01
6.7921968e-01
5.3747141e-01
2.7512712e-01
-1.9329758e-02
-2.5473201e-01
-3.7262802e-01
-3.6904752e-01
-3.0367052e-01
-2.6797615e-01
-3.0870615e-01
-3.9431574e-01
-4.6867395e-01
-5.0345236e-01
-5.0138428e-01
-4.7871524e-01
-4.4846871e-01
-4.1668312e-01
-3.8086186e-01
-3.3036873e-01
-2.5556559e-01
-1.5497437e-01
-3.2960425e-02
1.0802087e-01
2.7294407e-01
4.7213376e-01
7.0533393e-01
9.3591091e-01
1.0753900e+00
1.0259316e+00
7.7801517e-01
4.3779410e-01
1.3754690e-01
-4.4658559e-02
-9.0193230e-02
-2.0337769e-02
1.0496063e-01
1.9812515e-01
2.1057410e-01
1.7775386e-01
1.6791418e-01
2.0971222e-01
2.7369227e-01
3.2910641e-01
3.7747237e-01
4.0030159e-01
3.5020955e-01
1.9594991e-01
-5.6012118e-02
-3.6313464e-01
-6.6196186e-01
-8.9405500e-01
-1.0275488e+00
-1.0629277e+00
-1.0215308e+00
-9.2693510e-01
-8.0408120e-01
-6.8270695e-01
-5.8421048e-01
-5.1160202e-01
-4.5464568e-01
-3.9996422e-01
-3.3638860e-01
-2.5227747e-01
-1.3481851e-01
2.4207875e-02
2.2601432e-01
4.6180589e-01
7.0785481e-01
9.3056921e-01
1.0973225e+00
1.1752861e+00
1.1335457e+00
9.7185578e-01
7.3664369e-01
4.9218111e-01
2.7791173e-01
9.4946885e-02
-7.0140007e-02
-2.1523707e-01
-3.2004230e-01
-3.6632408e-01
-3.5487729e-01
-3.1008439e-01
-2.7156771e-01
-2.7318352e-01
-3.1779842e-01
-3.8000286e-01
-4.3159281e-01
-4.5015254e-01
-4.2319297e-01
-3.5384743e-01
-2.5699087e-01
-1.5267842e-01
-5.6818741e-02
2.5771523e-02
9.8217129e-02
1.6418241e-01
2.2240685e-01
2.6558329e-01
2.8597772e-01
2.8200242e-01
2.5990349e-01
2.3024196e-01
2.0503970e-01
2.0013326e-01
2.3070236e-01
2.9390749e-01
3.5724382e-01
3.7447105e-01
3.2219435e-01
2.1577152e-01
8.9046279e-02
-2.6507712e-02
-1.1088298e-01
-1.6716759e-01
-2.1790674e-01
-2.7964994e-01
-3.4892843e-01
-4.1116537e-01
-4.5342876e-01
-4.6737598e-01
-4.5115114e-01
-4.1627400e-01
-3.8646532e-01
-3.8111689e-01
-3.9507697e-01
-4.0544104e-01
-3.9618069e-01
-3.6190655e-01
-2.9818162e-01
-1.9744293e-01
-5.0054117e-02
1.5329998e-01
4.1347647e-01
6.9317420e-01
9.1183042e-01
1.0163119e+00
1.0316393e+00
9.9689176e-01
8.7816109e-01
6.0683110e-01
2.0376853e-01
-2.0233621e-01
-4.8599840e-01
-5.9643012e-01
-5.4359902e-01
-3.7555540e-01
-1.6679601e-01
1.4083715e-02
1.4693430e-01
2.3569515e-01
2.4961398e-01
1.4796319e-01
-4.8415676e-02
-2.5360588e-01
-3.8166080e-01
-3.9726860e-01
-3.1189241e-01
-1.5222564e-01
5.9214790e-02
3.0421074e-01
5.7039021e-01
8.2410234e-01
9.7054885e-01
9.0743589e-01
6.4152531e-01
2.9937591e-01
1.2118597e-02
-1.7145336e-01
-2.9047055e-01
-4.0175863e-01
-5.0005878e-01
-5.3662678e-01
-4.7034129e-01
-3.0379184e-01
-1.1462603e-01
-2.3004711e-02
-8.9020372e-02
-2.5807047e-01
-4.2550742e-01
-5.2267295e-01
-5.2941810e-01
-4.5431147e-01
-3.2891101e-01
-1.9316321e-01
-7.2650313e-02
1.3186824e-02
3.2460733e-02
-3.5959028e-02
-1.6991376e-01
-3.1403650e-01
-4.1799029e-01
-4.5913437e-01
-4.4150527e-01
-3.8532711e-01
-3.1532512e-01
-2.5136358e-01
-1.9569454e-01
-1.3511804e-01
-5.8036400e-02
4.4041792e-02
1.7990498e-01
3.5427442e-01
5.6455334e-01
8.0423704e-01
1.0617568e+00
1.2932282e+00
1.3994396e+00
1.2813760e+00
9.4467276e-01
5.1135460e-01
1.2010995e-01
-1.5240236e-01
-2.9572775e-01
-3.4324514e-01
-3.4806424e-01
-3.5380578e-01
-3.6735677e-01
-3.6791983e-01
-3.4403656e-01
-3.0497211e-01
-2.6865953e-01
-2.5244298e-01
-2.6386992e-01
-2.9026491e-01
-2.9978543e-01
-2.6377977e-01
-1.7744355e-01
-5.0023372e-02
1.1067495e-01
2.8550847e-01
4.2274467e-01
4.5861719e-01
3.7433375e-01
2.1025279e-01
2.6627720e-02
-1.2612466e-01
-2.1898831e-01
-2.4885021e-01
-2.3379001e-01
-1.9835789e-01
-1.5563191e-01
-1.1152974e-01
-8.1345778e-02
-8.1372276e-02
-1.0837631e-01
-1.3927974e-01
-1.4942835e-01
-1.2820014e-01
-8.1526586e-02
-2.5004946e-02
3.2592842e-02
1.0228249e-01
2.0532325e-01
3.4271849e-01
4.6665216e-01
5.0137829e-01
4.1419293e-01
2.4546905e-01
6.0567940e-02
-9.6999131e-02
-2.1108344e-01
-2.8359848e-01
-3.2671499e-01
-3.5489446e-01
-3.6807816e-01
-3.5309755e-01
-3.0559573e-01
-2.3046660e-01
-1.3566253e-01
-4.3077428e-02
8.7545160e-03
-8.4832978e-03
-8.2503445e-02
-1.6992898e-01
-2.3378819e-01
-2.6154409e-01
-2.5614834e-01
-2.2340166e-01
-1.6547911e-01
-7.8937498e-02
3.7479387e-02
1.6283176e-01
2.4860166e-01
2.5581692e-01
2.0172755e-01
1.4966578e-01
1.5186149e-01
2.2255089e-01
3.5172635e-01
5.1804861e-01
6.8354265e-01
7.9087171e-01
8.0485039e-01
7.5454841e-01
6.9977989e-01
6.6583062e-01
6.2746849e-01
5.3095620e-01
3.2258823e-01
-5.2919414e-03
-3.8737545e-01
-7.2844966e-01
-9.6332048e-01
-1.0710741e+00
-1.0652787e+00
-9.8664417e-01
-8.8994302e-01
-8.1452151e-01
-7.5363532e-01
-6.6399464e-01
-5.1139718e-01
-2.9479775e-01
-4.5808631e-02
1.7706647e-01
3.2113687e-01
3.7925588e-01
3.9209079e-01
4.1667922e-01
4.9027552e-01
6.1286414e-01
7.4671112e-01
8.2699982e-01
7.9204170e-01
6.2359443e-01
3.6870178e-01
1.1087068e-01
-8.7479629e-02
-2.0963494e-01
-2.7622216e-01
-3.2690721e-01
-3.8924278e-01
-4.5661929e-01
-4.9925327e-01
-4.9598118e-01
-4.5279457e-01
-3.8691237e-01
-3.0822309e-01
-2.2177332e-01
-1.3367123e-01
-4.8609375e-02
3.1587145e-02
9.9732839e-02
1.4336071e-01
1.6308550e-01
1.8423000e-01
2.3696823e-01
3.2149260e-01
4.0283321e-01
4.4037850e-01
4.1286777e-01
3.2436980e-01
2.0434507e-01
9.4938944e-02
2.4486863e-02
-8.1929832e-03
-2.1671528e-02
-2.7489434e-02
-2.5423392e-02
-1.8042749e-02
-1.3587889e-02
-1.3652676e-02
-1.5583078e-02
-2.2618727e-02
-3.5201698e-02
-4.2592838e-02
-3.7620901e-02
-3.0120265e-02
-3.5523790e-02
-5.9084098e-02
-9.9350847e-02
-1.5520619e-01
-2.1688736e-01
-2.6446672e-01
-2.8575027e-01
-2.8819011e-01
-2.8867061e-01
-2.9604288e-01
-3.0951963e-01
-3.2515375e-01
-3.3474948e-01
-3.2582033e-01
-2.9118153e-01
-2.3432103e-01
-1.6168402e-01
-7.6514145e-02
1.9355001e-02
1.2307402e-01
2.3272809e-01
3.4729927e-01
4.5650404e-01
5.3622711e-01
5.6540312e-01
5.4474567e-01
4.8583216e-01
3.8859557e-01
2.4959017e-01
8.8685263e-02
-5.2064239e-02
-1.4357023e-01
-1.9062194e-01
-2.1551576e-01
-2.3795536e-01
-2.6725755e-01
-2.9769712e-01
-3.1338220e-01
-3.0301015e-01
-2.7194281e-01
-2.3855080e-01
-2.1425920e-01
-1.9356209e-01
-1.6567041e-01
-1.2747317e-01
-7.8026307e-02
-6.5805397e-03
1.0416496e-01
2.6689442e-01
4.7899404e-01
7.0070676e-01
8.3928994e-01
8.0028472e-01
5.8925166e-01
3.2133342e-01
1.1214033e-01
-3.7103754e-03
-7.2502279e-02
-1.4477578e-01
-2.2248676e-01
-3.0998694e-01
-4.2494351e-01
-5.6037457e-01
-6.8438131e-01
-7.5860205e-01
-7.5679074e-01
-6.6755419e-01
-4.8688343e-01
-2.2134688e-01
1.0260091e-01
4.2775674e-01
6.6621932e-01
7.4486816e-01
6.7967832e-01
5.7619148e-01
5.3805615e-01
6.0038200e-01
7.2161442e-01
8.1101045e-01
7.8980290e-01
6.3950833e-01
4.0891588e-01
1.7564194e-01
-1.0734523e-02
-1.4533770e-01
-2.4625506e-01
-3.3205744e-01
-4.1395882e-01
-4.9627320e-01
-5.7110173e-01
-6.1990186e-01
-6.2810295e-01
-5.9023059e-01
-5.0807194e-01
-3.9632723e-01
-2.8534997e-01
-2.0492131e-01
-1.6391475e-01
-1.5375315e-01
-1.6358328e-01
-1.8265798e-01
-2.0048448e-01
-2.1021982e-01
-2.0891110e-01
-1.9556670e-01
-1.6933843e-01
-1.3210216e-01
-9.0927707e-02
-5.3132329e-02
-1.9839656e-02
1.3231585e-02
5.5244518e-02
1.2323064e-01
2.3470517e-01
3.9383803e-01
5.8770377e-01
7.9756100e-01
1.0064430e+00
1.1764435e+00
1.2264570e+00
1.0785175e+00
7.4769781e-01
3.5170487e-01
1.6517312e-02
-2.0054243e-01
-3.0942165e-01
-3.5174537e-01
-3.7159265e-01
-3.9806431e-01
-4.3280551e-01
-4.6285731e-01
-4.8246039e-01
-4.8788817e-01
-4.7284970e-01
-4.3454684e-01
-3.7386958e-01
-2.9095161e-01
-1.8433860e-01
-6.8028082e-02
1.2955913e-02
1.0187017e-02
-7.6387661e-02
-1.9963205e-01
-3.1434806e-01
-3.9563158e-01
-4.3430868e-01
-4.3707360e-01
-4.2004313e-01
-3.9631153e-01
-3.6461930e-01
-3.1486859e-01
-2.4006484e-01
-1.3415499e-01
7.7807593e-03
1.8222850e-01
3.7820815e-01
5.8841958e-01
8.1278028e-01
1.0325910e+00
1.1701656e+00
1.1162625e+00
8.4718294e-01
4.7418930e-01
1.4357333e-01
-6.8852036e-02
-1.6599309e-01
-1.9027768e-01
-1.9094377e-01
-1.9873262e-01
-2.0760141e-01
-1.9439212e-01
-1.6123263e-01
-1.3872417e-01
-1.4914683e-01
-1.7759119e-01
-1.8389615e-01
-1.3589611e-01
-2.7955386e-02
1.1791947e-01
2.5554454e-01
3.2924256e-01
3.2030412e-01
2.6899742e-01
2.2405091e-01
1.8572716e-01
1.0505117e-01
-4.7608810e-02
-2.4850804e-01
-4.5921685e-01
-6.3356819e-01
-7.2705916e-01
-7.3027656e-01
-6.7084269e-01
-5.9490004e-01
-5.3732838e-01
-4.9471603e-01
-4.3693008e-01
-3.3907445e-01
-1.9803987e-01
-3.1705668e-02
1.3613617e-01
2.9523967e-01
4.5091745e-01
6.0512590e-01
7.4535912e-01
8.5192952e-01
9.0006889e-01
8.5858674e-01
7.1263244e-01
4.9645907e-01
2.8346651e-01
1.3275647e-01
5.8474238e-02
4.2589654e-02
5.3786105e-02
5.9466269e-02
4.0296012e-02
-3.2398485e-04
-5.2130159e-02
-1.2017837e-01
-2.1465971e-01
-3.2514422e-01
-4.2215121e-01
-4.8353071e-01
-5.0784481e-01
-5.0633725e-01
-4.9598552e-01
-4.9535401e-01
-5.1279674e-01
-5.3943331e-01
-5.6208856e-01
-5.7609305e-01
-5.7790739e-01
-5.6078090e-01
-5.2178333e-01
-4.6255970e-01
-3.8204974e-01
-2.7274273e-01
-1.2784771e-01
5.0418674e-02
2.5399431e-01
4.7471909e-01
6.9614010e-01
8.8035092e-01
9.7806669e-01
9.7061833e-01
8.9407033e-01
8.0786393e-01
7.5702182e-01
7.5255864e-01
7.5619722e-01
6.9204291e-01
5.0238716e-01
2.1491064e-01
-7.0274400e-02
-2.7065162e-01
-3.6682319e-01
-3.8287454e-01
-3.5341989e-01
-3.0128909e-01
-2.3552859e-01
-1.6160246e-01
-9.7530404e-02
-7.8201637e-02
-1.2716867e-01
-2.2396203e-01
-3.1453684e-01
-3.5208743e-01
-3.2042597e-01
-2.3314335e-01
-1.2471643e-01
-3.7019692e-02
4.2505546e-03
6.8683440e-03
-5.8050452e-03
-2.3633659e-02
-4.9073007e-02
-8.2898292e-02
-1.1958925e-01
-1.5415984e-01
-1.8799050e-01
-2.2033315e-01
-2.4266144e-01
-2.4258677e-01
-2.0633854e-01
-1.2620378e-01
-1.7101469e-02
8.2323062e-02
1.4131859e-01
1.6318615e-01
1.7316548e-01
1.8785617e-01
2.0315508e-01
2.0643926e-01
1.9133462e-01
1.6097211e-01
1.1975826e-01
6.8339877e-02
1.0468971e-02
-4.4775443e-02
-9.2037811e-02
-1.2878511e-01
-1.4554511e-01
-1.2821667e-01
-6.8698238e-02
3.3460396e-02
1.7113928e-01
3.1452794e-01
4.0857878e-01
4.2399435e-01
4.0055618e-01
4.0172173e-01
4.3073279e-01
4.1478784e-01
3.1585021e-01
1.6965595e-01
-2.4400099e-02
-2.9079471e-01
-5.9572975e-01
-8.6531718e-01
-1.0371701e+00
-1.0860818e+00
-1.0194805e+00
-8.6173032e-01
-6.4531675e-01
-3.9711084e-01
-1.2288858e-01
1.8138282e-01
5.1323785e-01
8.5646029e-01
1.1681466e+00
1.3706382e+00
1.3849507e+00
1.2005385e+00
8.9975798e-01
5.9168341e-01
3.2725935e-01
9.4753402e-02
-1.1880430e-01
-2.9323894e-01
-3.9864963e-01
-4.1990616e-01
-3.6899707e-01
-2.9738210e-01
-2.6765889e-01
-2.9916870e-01
-3.5887244e-01
-4.0365745e-01
-4.1360781e-01
-3.9070948e-01
-3.4116333e-01
-2.6227821e-01
-1.4668744e-01
5.9807434e-03
1.7469482e-01
3.0550846e-01
3.3582964e-01
2.4821162e-01
8.4464585e-02
-9.3857100e-02
-2.3978353e-01
-3.3229111e-01
-3.7273289e-01
-3.7013845e-01
-3.3273998e-01
-2.6743235e-01
-1.8242316e-01
-8.8802246e-02
6.3225955e-03
1.0452624e-01
2.0661112e-01
3.0132275e-01
3.6887583e-01
3.9266803e-01
3.6689618e-01
2.9754327e-01
2.0039928e-01
9.9951438e-02
2.1521880e-02
-2.3204707e-02
-3.9055473e-02
-3.5312340e-02
-1.5240640e-02
2.3286724e-02
8.2658927e-02
1.6120057e-01
2.3920853e-01
2.7231823e-01
2.2435479e-01
1.0888313e-01
-1.8263906e-02
-1.0467549e-01
-1.2924273e-01
-1.0251456e-01
-5.7655465e-02
-3.4264627e-02
-5.7382055e-02
-1.2431153e-01
-2.1753310e-01
-3.2323314e-01
-4.2770303e-01
-5.1453090e-01
-5.7223476e-01
-5.9749160e-01
-5.9163953e-01
-5.5595968e-01
-4.9240559e-01
-4.0626036e-01
-3.0234450e-01
-1.7856263e-01
-3.2255614e-02
1.2973732e-01
3.0287386e-01
4.9653690e-01
7.0551699e-01
8.6779763e-01
8.8712341e-01
7.2331771e-01
4.3675137e-01
1.3097632e-01
-1.1565299e-01
-2.6136634e-01
-2.9343615e-01
-2.3055056e-01
-1.1318907e-01
1.9752403e-02
1.3968718e-01
2.2475540e-01
2.6765743e-01
2.8223564e-01
2.8926421e-01
2.9192951e-01
2.6823560e-01
1.9794679e-01
9.4841499e-02
-5.6771386e-03
-8.9299974e-02
-1.6556415e-01
-2.3797337e-01
-3.0691571e-01
-3.9166971e-01
-5.1087159e-01
-6.3707313e-01
-7.2212715e-01
-7.6292170e-01
-7.8503907e-01
-7.9037263e-01
-7.5287525e-01
-6.4098080e-01
-4.3706662e-01
-1.4320407e-01
2.2647508e-01
6.5583062e-01
1.1291948e+00
1.6024763e+00
1.9599292e+00
2.0543975e+00
1.8294810e+00
1.3783238e+00
8.6504963e-01
4.0074729e-01
1.1398728e-02
-2.9911754e-01
-5.1068641e-01
-6.1511238e-01
-6.3159397e-01
-5.9173236e-01
-5.2825257e-01
-4.6486084e-01
-4.0945779e-01
-3.6147662e-01
-3.2478807e-01
-3.0646649e-01
-3.0817218e-01
-3.2335178e-01
-3.3889343e-01
-3.4152654e-01
-3.2378477e-01
-2.8747427e-01
-2.4646581e-01
-2.1969697e-01
-2.1868279e-01
-2.4672413e-01
-3.0242866e-01
-3.7412705e-01
-4.3922901e-01
-4.7535806e-01
-4.6917441e-01
-4.1676121e-01
-3.2386253e-01
-2.0532505e-01
-7.7054139e-02
5.4454959e-02
1.9516596e-01
3.5292096e-01
5.2340460e-01
6.9525892e-01
8.6463358e-01
1.0232145e+00
1.1263035e+00
1.1045999e+00
9.3752565e-01
6.9340385e-01
4.7573355e-01
3.5059353e-01
3.2212899e-01
3.3661434e-01
3.0623262e-01
1.6780787e-01
-5.8190441e-02
-2.9007834e-01
-4.6421434e-01
-5.6613945e-01
-6.1408288e-01
-6.3407016e-01
-6.3847062e-01
-6.2317065e-01
-5.7874301e-01
-5.0753845e-01
-4.3340261e-01
-3.8523064e-01
-3.7321868e-01
-3.8947005e-01
-4.2221934e-01
-4.5708052e-01
-4.7636351e-01
-4.6646217e-01
-4.2411148e-01
-3.5693525e-01
-2.7543309e-01
-1.8477701e-01
-8.4983102e-02
2.6541091e-02
1.5373234e-01
2.9748725e-01
4.5255967e-01
6.1634198e-01
7.9592540e-01
9.8397424e-01
1.1188682e+00
1.1066123e+00
9.1405422e-01
6.1465355e-01
3.2564719e-01
1.2643922e-01
3.5614562e-02
2.3860787e-02
2.6818065e-02
-2.7668968e-02
-1.6021278e-01
-3.1780867e-01
-4.2628249e-01
-4.4203433e-01
-3.6807029e-01
-2.4875715e-01
-1.4893121e-01
-1.1753020e-01
-1.4513475e-01
-1.7315610e-01
-1.5330746e-01
-7.6664798e-02
3.6547260e-02
1.5216250e-01
2.2898391e-01
2.2596831e-01
1.3402585e-01
-1.8201279e-03
-1.2299013e-01
-2.2009762e-01
-3.3823021e-01
-4.9721258e-01
-6.5127984e-01
-7.5050062e-01
-7.6493966e-01
-6.7164037e-01
-4.6466752e-01
-1.5321980e-01
2.4418433e-01
6.8409809e-01
1.0687046e+00
1.2592297e+00
1.1737862e+00
8.6759480e-01
4.8750402e-01
1.6094822e-01
-6.3272421e-02
-1.9483203e-01
-2.6019217e-01
-2.8312412e-01
-2.7481155e-01
-2.3052185e-01
-1.4507580e-01
-3.1067812e-02
7.8656925e-02
1.4401410e-01
1.4129040e-01
8.0724711e-02
3.4718198e-03
-3.9757282e-02
-1.7538153e-02
6.6360434e-02
1.7624540e-01
2.5684606e-01
2.5764427e-01
1.6446425e-01
9.3629779e-03
-1.5737289e-01
-3.0187434e-01
-4.1108491e-01
-4.8667335e-01
-5.4049210e-01
-5.8283916e-01
-6.1525926e-01
-6.3089683e-01
-6.2122173e-01
-5.8328920e-01
-5.1669879e-01
-4.1853487e-01
-2.8795616e-01
-1.3396077e-01
2.9315617e-02
1.9424498e-01
3.5477207e-01
4.9007985e-01
5.6953369e-01
5.8524136e-01
5.7148355e-01
5.7855060e-01
6.3380465e-01
7.2542370e-01
8.0756487e-01
8.2861541e-01
7.6694440e-01
6.4299120e-01
4.9327927e-01
3.3285699e-01
1.5443188e-01
-3.9352395e-02
-2.2461668e-01
-3.7755389e-01
-4.8871851e-01
-5.6026515e-01
-5.9813242e-01
-6.0587238e-01
-5.8412542e-01
-5.3369951e-01
-4.6478720e-01
-3.9893749e-01
-3.5104934e-01
-3.1576024e-01
-2.7725962e-01
-2.2758149e-01
-1.7173297e-01
-1.1951246e-01
-7.8379500e-02
-5.2313291e-02
-4.1091539e-02
-3.9729106e-02
-4.2701342e-02
-4.8841251e-02
-5.8190624e-02
-6.2025029e-02
-4.2153221e-02
1.6108291e-02
1.1640425e-01
2.5234818e-01
4.0916744e-01
5.6493887e-01
6.9248227e-01
7.6389933e-01
7.4890397e-01
6.2257891e-01
3.9395019e-01
1.1940580e-01
-1.2431376e-01
-2.8584011e-01
-3.5893059e-01
-3.7004495e-01
-3.5649108e-01
-3.5086833e-01
-3.7243344e-01
-4.1286233e-01
-4.3908184e-01
-4.2179977e-01
-3.5307595e-01
-2.4404703e-01
-1.0941863e-01
4.8469843e-02
2.3745383e-01
4.6151641e-01
6.9929705e-01
8.8283512e-01
9.1944658e-01
7.7616114e-01
5.2559332e-01
2.7517846e-01
7.7753101e-02
-9.6402791e-02
-2.7889311e-01
-4.3587749e-01
-5.4670520e-01
-6.3192767e-01
-7.0431258e-01
-7.6219826e-01
-7.9656159e-01
-7.9775383e-01
-7.5695675e-01
-6.6172664e-01
-5.0288474e-01
-2.8600689e-01
-3.8519226e-02
1.9435425e-01
3.7729875e-01
5.1754928e-01
6.5706474e-01
8.2726942e-01
1.0187405e+00
1.1695615e+00
1.1825813e+00
9.9923095e-01
6.6188877e-01
2.9000112e-01
-1.0806996e-03
-1.6121727e-01
-2.0753020e-01
-1.9216926e-01
-1.6682965e-01
-1.6139022e-01
-1.8188273e-01
-2.1436550e-01
-2.4193227e-01
-2.6278764e-01
-2.8120733e-01
-2.9233451e-01
-2.8549362e-01
-2.5622191e-01
-2.1052064e-01
-1.6305504e-01
-1.3439281e-01
-1.3995072e-01
-1.7362436e-01
-2.0866013e-01
-2.2371653e-01
-2.2367081e-01
-2.2691023e-01
-2.3878257e-01
-2.4548170e-01
-2.2981760e-01
-1.8447740e-01
-1.1624831e-01
-4.4723671e-02
1.3243710e-02
6.2991830e-02
1.3006127e-01
2.3650102e-01
3.7820160e-01
5.2061154e-01
6.1874450e-01
6.4889029e-01
6.2264123e-01
5.7351432e-01
5.3015588e-01
4.9112266e-01
4.1842938e-01
2.7090139e-01
5.9088045e-02
-1.5665396e-01
-3.2272203e-01
-4.1603628e-01
-4.3452148e-01
-3.9291820e-01
-3.1898745e-01
-2.3947535e-01
-1.6706843e-01
-1.0982137e-01
-8.4062028e-02
-1.0095385e-01
-1.5142833e-01
-2.1722601e-01
-2.8586802e-01
-3.4802574e-01
-3.9120688e-01
-4.0690181e-01
-4.0043485e-01
-3.8546875e-01
-3.7235872e-01
-3.6956969e-01
-3.8620036e-01
-4.1843274e-01
-4.4523913e-01
-4.4909150e-01
-4.2962675e-01
-3.9046740e-01
-3.2588263e-01
-2.2648330e-01
-8.6328369e-02
9.9755419e-02
3.3137675e-01
5.7872013e-01
7.7814572e-01
8.8936715e-01
9.5053218e-01
1.0373374e+00
1.1764443e+00
1.3176728e+00
1.3631450e+00
1.2308093e+00
9.1734513e-01
4.9505479e-01
6.2724459e-02
-2.9865412e-01
-5.5131543e-01
-7.0041951e-01
-7.6942975e-01
-7.8097653e-01
-7.5653952e-01
-7.1030932e-01
-6.4324003e-01
-5.5624303e-01
-4.6834687e-01
-4.0783975e-01
-3.7503901e-01
-3.2864043e-01
-2.2522650e-01
-6.8075626e-02
9.2933430e-02
2.4233658e-01
4.1594362e-01
5.8037496e-01
6.2190286e-01
4.7171882e-01
1.6641160e-01
-1.9391591e-01
-5.2182598e-01
-7.7707878e-01
-9.4761015e-01
-1.0318335e+00
-1.0367532e+00
-9.7154995e-01
-8.3914806e-01
-6.3861252e-01
-3.7432799e-01
-5.4518117e-02
3.1621304e-01
7.3797143e-01
1.2054916e+00
1.6689849e+00
1.9882113e+00
1.9876824e+00
1.6189156e+00
1.0442591e+00
5.0865202e-01
1.5511705e-01
-9.0614719e-03
-4.5323445e-02
-2.0854168e-02
2.5166388e-02
8.9953082e-02
1.7162956e-01
2.1823750e-01
1.5403781e-01
-3.7118702e-02
-2.8469486e-01
-4.9505320e-01
-6.1607331e-01
-6.4513119e-01
-6.0662529e-01
-5.3044004e-01
-4.4358190e-01
-3.6531716e-01
-3.1331935e-01
-3.0742169e-01
-3.4959309e-01
-4.1585246e-01
-4.7338295e-01
-5.0115136e-01
-4.9907366e-01
-4.8238744e-01
-4.6539842e-01
-4.4587103e-01
-4.0591040e-01
-3.2570636e-01
-1.9946967e-01
-4.2388725e-02
1.2058367e-01
2.7581470e-01
4.2970037e-01
5.9757634e-01
7.9368977e-01
1.0185323e+00
1.2239952e+00
1.3023605e+00
1.1619768e+00
8.2764692e-01
4.3044188e-01
9.6959318e-02
-1.1947688e-01
-2.2738804e-01
-2.6851859e-01
-2.9593732e-01
-3.4866779e-01
-4.2402896e-01
-4.8662080e-01
-5.0869894e-01
-4.8398683e-01
-4.2048383e-01
-3.3586403e-01
-2.5083136e-01
-1.8156931e-01
-1.3228284e-01
-1.0048857e-01
-8.8915753e-02
-1.0005239e-01
-1.2373883e-01
-1.4065054e-01
-1.3971704e-01
-1.2536290e-01
-1.0973664e-01
-1.0187015e-01
-1.0230144e-01
-1.0601805e-01
-1.0683271e-01
-1.0008880e-01
-8.2791932e-02
-5.3314879e-02
-1.2348556e-02
4.0816545e-02
1.1114311e-01
2.0327694e-01
3.1474674e-01
4.2607195e-01
5.0200740e-01
5.1855389e-01
4.8685553e-01
4.3612023e-01
3.7440846e-01
2.8075467e-01
1.3674724e-01
-4.1734824e-02
-2.1585340e-01
-3.5874933e-01
-4.6160933e-01
-5.1842924e-01
-5.2211293e-01
-4.7296372e-01
-3.7824362e-01
-2.4739118e-01
-9.8319656e-02
4.0326416e-02
1.5219043e-01
2.5873210e-01
3.9596101e-01
5.5958553e-01
6.9802115e-01
7.7962761e-01
8.0559325e-01
7.4447381e-01
5.5576906e-01
2.5963596e-01
-7.0464795e-02
-3.5870861e-01
-5.6914169e-01
-7.0521914e-01
-7.8241210e-01
-8.1842017e-01
-8.2588194e-01
-8.0351190e-01
-7.4832787e-01
-6.7159262e-01
-5.8986568e-01
-5.0118479e-01
-3.8258142e-01
-2.1156237e-01
1.5065882e-02
2.7916452e-01
5.5143712e-01
8.0940891e-01
1.0522693e+00
1.2784902e+00
1.4349354e+00
1.4216713e+00
1.1815675e+00
7.8078862e-01
3.6456378e-01
3.6671451e-02
-1.8331108e-01
-3.2096602e-01
-4.0651067e-01
-4.6265810e-01
-5.0268883e-01
-5.3285243e-01
-5.6152462e-01
-5.9275071e-01
-6.1214204e-01
-5.9142252e-01
-5.0946837e-01
-3.6493706e-01
-1.7739794e-01
1.0705060e-02
1.4554196e-01
1.9425681e-01
1.6379505e-01
8.3593859e-02
-2.3293799e-02
-1.4586945e-01
-2.7595058e-01
-4.0009555e-01
-4.9802361e-01
-5.5347477e-01
-5.5906328e-01
-5.1265605e-01
-4.1457115e-01
-2.6454545e-01
-6.5368229e-02
1.6615365e-01
3.9739094e-01
6.0011918e-01
7.6779153e-01
8.9787838e-01
9.5870595e-01
8.9680433e-01
6.9806753e-01
4.2710253e-01
1.8274573e-01
3.0627966e-02
-1.3839912e-02
3.2682543e-02
1.3949735e-01
2.7432769e-01
4.0898811e-01
5.0171542e-01
4.8831581e-01
3.2423973e-01
3.2655257e-02
-3.0108692e-01
-5.8317901e-01
-7.6083179e-01
-8.3565513e-01
-8.4861030e-01
-8.4836789e-01
-8.5991990e-01
-8.7135189e-01
-8.5372416e-01
-7.9467980e-01
-7.0518369e-01
-6.0528879e-01
-5.0889606e-01
-4.1242027e-01
-2.9642376e-01
-1.4133763e-01
6.3313813e-02
3.2096633e-01
6.3031468e-01
9.8086742e-01
1.3250239e+00
1.5626728e+00
1.6065416e+00
1.4745845e+00
1.2760089e+00
1.0994423e+00
9.3795612e-01
7.1356595e-01
3.7962512e-01
-8.6596422e-03
-3.4835429e-01
-5.6739401e-01
-6.4827362e-01
-6.3327937e-01
-6.0075727e-01
-6.0507402e-01
-6.4488590e-01
-6.8777651e-01
-7.0357537e-01
-6.7820712e-01
-6.1055076e-01
-5.0791542e-01
-3.8666638e-01
-2.5688195e-01
-1.0835004e-01
6.6582828e-02
2.3654555e-01
3.4693735e-01
3.8956047e-01
3.9657173e-01
3.6563435e-01
2.6999119e-01
1.0985624e-01
-8.8606687e-02
-2.9341042e-01
-4.7275875e-01
-5.9411012e-01
-6.2835441e-01
-5.6329290e-01
-4.0985049e-01
-1.9017991e-01
7.2567064e-02
3.5675401e-01
6.4349740e-01
9.0160593e-01
1.0672851e+00
1.0697743e+00
8.9937242e-01
6.3227280e-01
3.7074998e-01
1.7389672e-01
4.3714646e-02
-4.7312597e-02
-1.2660945e-01
-2.0963496e-01
-2.9152112e-01
-3.5725733e-01
-4.0437370e-01
-4.3634248e-01
-4.4806249e-01
-4.3140563e-01
-3.8889365e-01
-3.3539688e-01
-2.8408511e-01
-2.3558333e-01
-1.8305126e-01
-1.2489799e-01
-7.3361411e-02
-5.1417829e-02
-7.4021987e-02
-1.2988618e-01
-1.8605929e-01
-2.1230902e-01
-2.0450056e-01
-1.8537265e-01
-1.8244783e-01
-2.0632591e-01
-2.4457399e-01
-2.7030846e-01
-2.5913631e-01
-2.0181368e-01
-1.0679846e-01
7.9924338e-03
1.3183273e-01
2.6595861e-01
4.1541637e-01
5.8783783e-01
7.8627277e-01
9.7931775e-01
1.0780686e+00
9.8543803e-01
7.0094633e-01
3.3623436e-01
1.6101323e-02
-1.9572537e-01
-2.9882729e-01
-3.2774144e-01
-3.1843830e-01
-2.8721249e-01
-2.3053896e-01
-1.4630064e-01
-5.3911097e-02
1.6239345e-02
5.1490142e-02
6.2719802e-02
5.9324999e-02
3.2145947e-02
-2.6202716e-02
-1.0058764e-01
-1.6708959e-01
-2.1123937e-01
-2.2931712e-01
-2.2876090e-01
-2.2794462e-01
-2.4091754e-01
-2.5958405e-01
-2.5937253e-01
-2.2317581e-01
-1.5452465e-01
-7.4607519e-02
-9.1386864e-03
3.0631269e-02
5.6931924e-02
9.6577874e-02
1.6593256e-01
2.4673305e-01
2.9464943e-01
2.7959814e-01
2.0571549e-01
9.1663071e-02
-4.2965315e-02
-1.7260303e-01
-2.6765705e-01
-3.0641832e-01
-2.8267119e-01
-2.0875046e-01
-1.2488774e-01
-9.0803478e-02
-1.3915930e-01
-2.4290717e-01
-3.4028129e-01
-3.8853568e-01
-3.9204287e-01
-3.8048221e-01
-3.6591073e-01
-3.2566036e-01
-2.2241337e-01
-3.0693622e-02
2.4773195e-01
5.7323230e-01
8.7227329e-01
1.0701317e+00
1.1306802e+00
1.0572737e+00
8.6925786e-01
5.9882585e-01
3.0537010e-01
4.2767669e-02
-1.9358834e-01
-4.2148788e-01
-6.1361048e-01
-7.2140586e-01
-7.1076811e-01
-5.7596628e-01
-3.3962035e-01
-4.0509847e-02
2.7988450e-01
5.8870363e-01
8.5361533e-01
1.0178131e+00
1.0161685e+00
8.3768316e-01
5.5641739e-01
2.8000298e-01
7.3663037e-02
-6.3166165e-02
-1.6158117e-01
-2.4327467e-01
-3.1673294e-01
-3.7929966e-01
-4.2104411e-01
-4.4225217e-01
-4.5830922e-01
-4.8060827e-01
-4.9923515e-01
-4.9008217e-01
-4.3367783e-01
-3.2930569e-01
-1.9979402e-01
-8.1460182e-02
-1.2604995e-03
3.7486387e-02
4.4866207e-02
2.8464737e-02
-5.6231749e-03
-4.8314114e-02
-8.9123641e-02
-1.1756960e-01
-1.2637270e-01
-1.1635098e-01
-9.8182578e-02
-8.2777759e-02
-6.4994855e-02
-2.3666902e-02
5.4950909e-02
1.5342267e-01
2.3020074e-01
2.5354918e-01
2.1837218e-01
1.3308359e-01
1.3556665e-02
-1.0839787e-01
-1.9375575e-01
-2.2478684e-01
-2.1521411e-01
-1.8968004e-01
-1.6585518e-01
-1.4913951e-01
-1.2757173e-01
-7.7548848e-02
1.5881335e-02
1.4380117e-01
2.8262105e-01
4.1411068e-01
5.2131255e-01
5.7026335e-01
5.2338483e-01
3.8381964e-01
2.0380281e-01
4.1098316e-02
-7.1808026e-02
-1.3003482e-01
-1.4787208e-01
-1.4118455e-01
-1.1720075e-01
-7.8228903e-02
-3.8467314e-02
-3.1524471e-02
-8.1811898e-02
-1.7416250e-01
-2.6316959e-01
-3.0866297e-01
-2.9889342e-01
-2.5230668e-01
-2.0605641e-01
-1.8849818e-01
-1.9443259e-01
-1.9209148e-01
-1.5595543e-01
-9.2352106e-02
-2.9597457e-02
1.2874856e-02
3.4259179e-02
3.7479652e-02
2.0728876e-02
-1.0828540e-02
-3.7872681e-02
-4.0945660e-02
-8.7593995e-03
6.5762318e-02
1.7999376e-01
3.1011014e-01
4.1843329e-01
4.7890296e-01
4.8777445e-01
4.5095831e-01
3.7269844e-01
2.5883489e-01
1.2517334e-01
-1.2887161e-03
-9.3075693e-02
-1.3287859e-01
-1.1360969e-01
-3.9373939e-02
7.0841296e-02
1.8639935e-01
2.6916812e-01
2.7684123e-01
1.8111620e-01
4.8980963e-04
-1.9975379e-01
-3.5567996e-01
-4.5091257e-01
-5.3046549e-01
-6.3052289e-01
-7.2610202e-01
-7.9559261e-01
-8.3494636e-01
-8.2306104e-01
-7.3513924e-01
-5.5871308e-01
-3.0047166e-01
7.6265744e-03
3.1685901e-01
5.8473159e-01
7.9839814e-01
9.6600197e-01
1.0815338e+00
1.1180660e+00
1.0522577e+00
9.0024153e-01
7.2439694e-01
5.8786362e-01
5.1515221e-01
4.9025034e-01
4.6532853e-01
3.8191770e-01
2.1827220e-01
3.9830541e-03
-2.1541903e-01
-4.0407560e-01
-5.4455747e-01
-6.4198873e-01
-7.1294063e-01
-7.6635568e-01
-7.9747493e-01
-8.0155947e-01
-7.8676740e-01
-7.6534852e-01
-7.4402272e-01
-7.2640822e-01
-7.1331861e-01
-6.9827280e-01
-6.6785330e-01
-6.1234692e-01
-5.3132315e-01
-4.2498132e-01
-2.9044251e-01
-1.3076356e-01
4.3047785e-02
2.2610602e-01
4.2696451e-01
6.5373812e-01
8.9773211e-01
1.1396789e+00
1.3651374e+00
1.5499236e+00
1.6313350e+00
1.5290583e+00
1.2219232e+00
7.9259044e-01
3.7091400e-01
4.5108298e-02
-1.6268606e-01
-2.7404203e-01
-3.3318643e-01
-3.8585771e-01
-4.4850278e-01
-5.0862132e-01
-5.5601784e-01
-5.8855985e-01
-6.0292720e-01
-5.9233476e-01
-5.5192263e-01
-4.8924876e-01
-4.2098669e-01
-3.6139039e-01
-3.1326124e-01
-2.6505236e-01
-2.0139837e-01
-1.2100872e-01
-4.1550865e-02
1.8638314e-02
5.4536374e-02
6.3993651e-02
3.9575166e-02
-1.6911232e-02
-8.2082419e-02
-1.2162909e-01
-1.1136873e-01
-4.4604346e-02
7.1892300e-02
2.2073492e-01
3.7776053e-01
5.1864697e-01
6.2858099e-01
6.9962232e-01
7.1229863e-01
6.3655068e-01
4.7080030e-01
2.6260798e-01
6.8530414e-02
-8.6328387e-02
-1.9962221e-01
-2.7059230e-01
-3.0159648e-01
-3.0133035e-01
-2.7624644e-01
-2.3725076e-01
-2.1017560e-01
-2.1570226e-01
-2.4511178e-01
-2.6868523e-01
-2.6237830e-01
-2.1859474e-01
-1.4057669e-01
-4.1653504e-02
5.4599498e-02
1.2858496e-01
1.8267457e-01
2.3507004e-01
2.9436619e-01
3.5257459e-01
3.9695456e-01
4.1143351e-01
3.7011315e-01
2.4862714e-01
5.8384183e-02
-1.4524637e-01
-3.0731770e-01
-4.2116531e-01
-5.3774995e-01
-6.9701746e-01
-8.7366392e-01
-1.0230509e+00
-1.1058954e+00
-1.0850478e+00
-9.4387736e-01
-6.8803006e-01
-3.3853079e-01
6.9982902e-02
4.9665008e-01
9.0810045e-01
1.2851094e+00
1.5921213e+00
1.7370265e+00
1.6180856e+00
1.2420502e+00
7.5543501e-01
3.2988787e-01
5.0010829e-02
-9.1357237e-02
-1.4054166e-01
-1.4070817e-01
-1.2579530e-01
-1.2083241e-01
-1.4310191e-01
-2.0519892e-01
-3.0104711e-01
-3.9970436e-01
-4.6194148e-01
-4.6289519e-01
-4.0423519e-01
-3.1104476e-01
-2.2379772e-01
-1.8364839e-01
-2.0636923e-01
-2.7060607e-01
-3.4205605e-01
-4.0254287e-01
-4.4622141e-01
-4.6771705e-01
-4.6225502e-01
-4.2943939e-01
-3.7726682e-01
-3.1803131e-01
-2.6017876e-01
-2.0036072e-01
-1.1991235e-01
4.0749138e-03
1.8199621e-01
4.0359950e-01
6.4621777e-01
8.8427505e-01
1.0712383e+00
1.1279801e+00
9.9411502e-01
7.0350853e-01
3.7745704e-01
1.3039389e-01
9.1698832e-03
1.0165792e-03
5.2757912e-02
9.2878261e-02
7.1375192e-02
-6.6345518e-03
-1.0019968e-01
-1.8098496e-01
-2.4646473e-01
-3.0248384e-01
-3.4851364e-01
-3.7539672e-01
-3.7326343e-01
-3.3879518e-01
-2.7865126e-01
-2.1147589e-01
-1.6172160e-01
-1.4465797e-01
-1.6491108e-01
-2.2195566e-01
-3.0080783e-01
-3.7135520e-01
-4.0648656e-01
-3.9511853e-01
-3.3861641e-01
-2.4497983e-01
-1.2989609e-01
-1.3154650e-02
9.6686935e-02
2.1038835e-01
3.3852896e-01
4.6812375e-01
5.7155323e-01
6.3628593e-01
6.6855124e-01
6.6752594e-01
6.1517064e-01
4.9533008e-01
3.1748605e-01
1.1855828e-01
-5.7562486e-02
-1.7842367e-01
-2.3355252e-01
-2.3895790e-01
-2.2294062e-01
-2.0484841e-01
-1.9492937e-01
-2.0561384e-01
-2.4537591e-01
-2.9923170e-01
-3.3011353e-01
-3.0724168e-01
-2.2700101e-01
-1.1218735e-01
-4.1866831e-03
5.0070833e-02
2.4493649e-02
-6.2874146e-02
-1.6341197e-01
-2.3657210e-01
-2.6707541e-01
-2.5598127e-01
-2.0896363e-01
-1.3555934e-01
-5.3671267e-02
2.2994453e-02
1.0242159e-01
2.0301015e-01
3.2279186e-01
4.3286729e-01
5.2553547e-01
6.2459958e-01
7.2703658e-01
7.9628927e-01
7.8508312e-01
6.4620797e-01
3.7208023e-01
2.9882161e-02
-2.7214971e-01
-4.6038136e-01
-5.2984200e-01
-5.1781212e-01
-4.5799855e-01
-3.6416510e-01
-2.4416249e-01
-1.1033597e-01
1.0480625e-02
7.6698478e-02
6.3782318e-02
-4.1090961e-03
-6.5969616e-02
-7.0306061e-02
-8.0797070e-03
8.2844259e-02
1.3877952e-01
1.1730676e-01
2.8038353e-02
-8.2668367e-02
-1.7437060e-01
-2.4078402e-01
-2.9808994e-01
-3.6040620e-01
-4.2834772e-01
-4.9181246e-01
-5.3758227e-01
-5.5549344e-01
-5.4433609e-01
-5.1113339e-01
-4.6262765e-01
-3.9992834e-01
-3.2310354e-01
-2.3474267e-01
-1.3333603e-01
-9.2134608e-03
1.4997707e-01
3.5134814e-01
5.9619379e-01
8.7930894e-01
1.1667376e+00
1.3674925e+00
1.3678178e+00
1.1387993e+00
7.8028860e-01
4.3084188e-01
1.7285074e-01
2.1750561e-02
-3.9235736e-02
-3.2415119e-02
1.8009824e-02
8.7311248e-02
1.4517685e-01
1.5310088e-01
9.1002483e-02
-2.0327300e-02
-1.4068784e-01
-2.4953418e-01
-3.4974311e-01
-4.3903370e-01
-5.0214250e-01
-5.3151350e-01
-5.3625854e-01
-5.2928953e-01
-5.2022385e-01
-5.1725432e-01
-5.1909172e-01
-5.1166856e-01
-4.8459335e-01
-4.4327064e-01
-3.9900898e-01
-3.5869678e-01
-3.2321967e-01
-2.8609615e-01
-2.3562760e-01
-1.6128161e-01
-6.0237366e-02
6.5252130e-02
2.1514199e-01
3.8803188e-01
5.7263074e-01
7.5228846e-01
9.2191166e-01
1.0882567e+00
1.2337221e+00
1.2789383e+00
1.1234537e+00
7.5670148e-01
2.9219853e-01
-1.2965794e-01
-4.3168224e-01
-6.0135585e-01
-6.6241070e-01
-6.5692798e-01
-6.2543356e-01
-5.8206974e-01
-5.2627623e-01
-4.7528045e-01
-4.4951538e-01
-4.4223288e-01
-4.2339483e-01
-3.6665547e-01
-2.6882885e-01
-1.4970083e-01
-4.3786108e-02
1.4710196e-02
1.2739163e-02
-2.3015729e-02
-3.8453831e-02
6.6442417e-03
1.2066014e-01
2.8679114e-01
4.6700253e-01
6.0378502e-01
6.4203078e-01
5.7943492e-01
4.7582233e-01
3.8985805e-01
3.2784229e-01
2.5270166e-01
1.3405886e-01
-2.5962372e-02
-2.0977431e-01
-3.8421696e-01
-5.0572957e-01
-5.4771289e-01
-5.0665049e-01
-3.9154698e-01
-2.1926086e-01
-2.1973532e-02
1.4944154e-01
2.5603783e-01
3.0173672e-01
3.1367583e-01
3.0862830e-01
2.9169935e-01
2.6822913e-01
2.4370025e-01
2.1641038e-01
1.7916903e-01
1.2952897e-01
6.9751748e-02
-4.9589563e-04
-7.5734174e-02
-1.3867540e-01
-1.7540660e-01
-1.8542995e-01
-1.7556664e-01
-1.5135031e-01
-1.1514176e-01
-7.0852390e-02
-2.9408184e-02
-1.2964199e-02
-4.5120519e-02
-1.2568720e-01
-2.2560986e-01
-3.1336207e-01
-3.7920317e-01
-4.3017899e-01
-4.7110293e-01
-4.9675417e-01
-4.9757571e-01
-4.6889046e-01
-4.1510480e-01
-3.4941237e-01
-2.8365746e-01
-2.1142029e-01
-1.0902481e-01
4.3318347e-02
2.4304213e-01
4.7019966e-01
7.0495250e-01
9.2223858e-01
1.0691359e+00
1.0751454e+00
9.1434502e-01
6.4646021e-01
3.7307682e-01
1.7012466e-01
6.7176856e-02
5.8202360e-02
1.1078122e-01
1.7620715e-01
2.1245416e-01
1.9421422e-01
1.1191658e-01
-1.7573397e-02
-1.5733840e-01
-2.7528417e-01
-3.5946783e-01
-4.1596746e-01
-4.5333180e-01
-4.7546652e-01
-4.8703434e-01
-4.9349988e-01
-4.9482501e-01
-4.9002002e-01
-4.8601373e-01
-4.8843380e-01
-4.9209073e-01
-4.8844323e-01
-4.7445869e-01
-4.5093682e-01
-4.1806850e-01
-3.7819096e-01
-3.3618152e-01
-2.9058001e-01
-2.3007693e-01
-1.4105982e-01
-1.6266751e-02
1.4522818e-01
3.4190787e-01
5.6535498e-01
7.9506472e-01
1.0078984e+00
1.1900188e+00
1.3208277e+00
1.3488503e+00
1.2161133e+00
9.2556185e-01
5.6816700e-01
2.5866826e-01
5.9218866e-02
-3.2577477e-02
-5.4699594e-02
-4.9647733e-02
-5.1889034e-02
-8.2281871e-02
-1.5078380e-01
-2.5895148e-01
-3.8539462e-01
-4.9236808e-01
-5.5181648e-01
-5.5966493e-01
-5.3847276e-01
-5.2311882e-01
-5.3936134e-01
-5.9037795e-01
-6.5439001e-01
-6.9771358e-01
-6.9824689e-01
-6.6118887e-01
-6.0473231e-01
-5.3290297e-01
-4.2960455e-01
-2.7556482e-01
-8.4601163e-02
7.7118347e-02
1.8847354e-01
3.1417099e-01
4.8223736e-01
6.7132267e-01
8.7649941e-01
1.1045040e+00
1.3368195e+00
1.5013169e+00
1.5008842e+00
1.2840222e+00
8.8612896e-01
4.1237736e-01
-1.6487676e-02
-3.1693978e-01
-4.6097533e-01
-4.6308012e-01
-3.6575288e-01
-2.3772988e-01
-1.5178716e-01
-1.3938032e-01
-1.8451199e-01
-2.6002719e-01
-3.4483511e-01
-4.1689130e-01
-4.4915306e-01
-4.1537177e-01
-3.0314507e-01
-1.2673372e-01
6.3555270e-02
1.9078109e-01
1.9763564e-01
9.2969474e-02
-7.5947101e-02
-2.7874007e-01
-4.9236806e-01
-6.8082662e-01
-8.1145756e-01
-8.7418628e-01
-8.7895721e-01
-8.3896202e-01
-7.6671316e-01
-6.7693086e-01
-5.7860360e-01
-4.6789208e-01
-3.3634193e-01
-1.8377641e-01
-1.4194978e-02
1.7719024e-01
4.0404138e-01
6.7736655e-01
1.0009777e+00
1.3661202e+00
1.7122907e+00
1.8989452e+00
1.7909326e+00
1.4063029e+00
9.2043799e-01
5.0937596e-01
2.4610852e-01
1.1155799e-01
3.2637201e-02
-6.9500201e-02
-2.2871890e-01
-4.1458145e-01
-5.6873018e-01
-6.5983252e-01
-6.9526462e-01
-7.0375291e-01
-7.1929669e-01
-7.5819083e-01
-8.0339092e-01
-8.2023657e-01
-7.8746565e-01
-7.1236955e-01
-6.1721274e-01
-5.2021195e-01
-4.3288699e-01
-3.6208690e-01
-3.0449225e-01
-2.4684964e-01
-1.7787952e-01
-9.3866930e-02
8.9426201e-03
1.4155092e-01
3.1642875e-01
5.3332672e-01
7.7225810e-01
1.0004634e+00
1.1742101e+00
1.2427414e+00
1.1850585e+00
1.0315324e+00
8.2458769e-01
5.7449039e-01
2.7611534e-01
-3.9608512e-02
-3.0600428e-01
-4.7341300e-01
-5.3899685e-01
-5.3633486e-01
-5.0887236e-01
-4.8399393e-01
-4.6248690e-01
-4.2649988e-01
-3.6626916e-01
-3.0269683e-01
-2.7297447e-01
-2.8985169e-01
-3.2538471e-01
-3.3962795e-01
-3.0839418e-01
-2.2834746e-01
-1.2097203e-01
-3.2699760e-02
-7.4403062e-03
-4.2530675e-02
-8.8585229e-02
-9.6585912e-02
-4.3126805e-02
7.3055906e-02
2.3502455e-01
4.0601717e-01
5.3262192e-01
5.8599149e-01
5.9981656e-01
6.3509719e-01
7.1418041e-01
8.0012208e-01
8.4986968e-01
8.4425828e-01
7.5256424e-01
5.5174640e-01
2.6446265e-01
-5.8483534e-02
-3.6234322e-01
-5.9681935e-01
-7.2886093e-01
-7.6578423e-01
-7.5421340e-01
-7.3517773e-01
-7.0813316e-01
-6.5081398e-01
-5.5471006e-01
-4.3302772e-01
-3.1100849e-01
-2.0780120e-01
-1.2199861e-01
-3.9948514e-02
4.2787320e-02
1.0825248e-01
1.2342525e-01
7.2965410e-02
-1.8339660e-02
-1.0682999e-01
-1.5989351e-01
-1.6831947e-01
-1.4676376e-01
-1.2307599e-01
-1.2015393e-01
-1.3912453e-01
-1.6355756e-01
-1.7712994e-01
-1.6705151e-01
-1.1966601e-01
-2.2610638e-02
1.2832854e-01
3.2745127e-01
5.5903328e-01
7.8522496e-01
9.4377754e-01
9.8783734e-01
9.2917712e-01
8.1984214e-01
6.9536777e-01
5.5049241e-01
3.6708713e-01
1.5860610e-01
-3.1164813e-02
-1.6751518e-01
-2.3983691e-01
-2.5882223e-01
-2.5554735e-01
-2.6688691e-01
-3.0927598e-01
-3.7619673e-01
-4.5787509e-01
-5.4379336e-01
-6.1771573e-01
-6.6450673e-01
-6.7591968e-01
-6.5117702e-01
-5.9796067e-01
-5.3100385e-01
-4.6864863e-01
-4.2425294e-01
-3.9469609e-01
-3.6600580e-01
-3.2714641e-01
-2.7096788e-01
-1.9233249e-01
-8.8009241e-02
4.5404370e-02
2.1292934e-01
4.1944249e-01
6.6163359e-01
9.2073783e-01
1.1667639e+00
1.3661042e+00
1.4732060e+00
1.4303126e+00
1.2101867e+00
8.5580440e-01
4.5928151e-01
1.0165992e-01
-1.8463853e-01
-4.0323966e-01
-5.6172609e-01
-6.6679673e-01
-7.3546206e-01
-7.8061794e-01
-7.9986343e-01
-7.8506552e-01
-7.2574921e-01
-6.1531591e-01
-4.6246486e-01
-2.9104593e-01
-1.2583054e-01
1.9375235e-02
1.3469572e-01
2.0145291e-01
1.9749750e-01
1.1912250e-01
-1.1712568e-02
-1.6313273e-01
-3.0565800e-01
-4.1801088e-01
-4.8852294e-01
-5.1304556e-01
-4.9626720e-01
-4.4916152e-01
-3.8444955e-01
-3.1089527e-01
-2.2604948e-01
-1.1746527e-01
3.2621928e-02
2.3984885e-01
5.1048209e-01
8.3930112e-01
1.1881965e+00
1.4542868e+00
1.5053994e+00
1.3071547e+00
9.7983974e-01
6.8701130e-01
5.1445734e-01
4.3192513e-01
3.6794772e-01
3.0235878e-01
2.2267456e-01
9.6137810e-02
-9.1204459e-02
-3.2151750e-01
-5.4358091e-01
-6.9321256e-01
-7.3279342e-01
-6.7481670e-01
-5.7365349e-01
-4.8295017e-01
-4.1240975e-01
-3.3937647e-01
-2.5519896e-01
-1.7944444e-01
-1.3611061e-01
-1.2580511e-01
-1.2662995e-01
-1.2128729e-01
-1.1291481e-01
-1.1781177e-01
-1.4857538e-01
-2.0001183e-01
-2.5130928e-01
-2.8359640e-01
-2.9130637e-01
-2.8042479e-01
-2.6164013e-01
-2.4010088e-01
-2.0765972e-01
-1.4882424e-01
-5.6368606e-02
6.0100254e-02
1.8370096e-01
3.0213233e-01
3.9979501e-01
4.4860226e-01
4.2523793e-01
3.3867902e-01
2.2868160e-01
1.3195087e-01
6.1662409e-02
1.9807127e-02
1.1487656e-02
3.6190777e-02
7.4368977e-02
1.0441529e-01
1.2435006e-01
1.4858779e-01
1.9928763e-01
2.8998498e-01
4.0052485e-01
4.6980172e-01
4.3225952e-01
2.8227189e-01
8.4700074e-02
-8.4603033e-02
-1.8260429e-01
-2.0237313e-01
-1.6805919e-01
-1.2331361e-01
-1.0764661e-01
-1.3091848e-01
-1.7867905e-01
-2.3856225e-01
-3.0322551e-01
-3.6391829e-01
-4.1335406e-01
-4.4901348e-01
-4.7096388e-01
-4.7804943e-01
-4.6893021e-01
-4.4379521e-01
-4.0385576e-01
-3.4895302e-01
-2.7871888e-01
-1.9428155e-01
-9.3708337e-02
2.7309135e-02
1.6713174e-01
3.1545923e-01
4.6039153e-01
5.9393542e-01
7.0065543e-01
7.4595136e-01
6.9587769e-01
5.5434078e-01
3.6804854e-01
1.8704786e-01
3.2925222e-02
-9.0734347e-02
-1.7752352e-01
-2.1991620e-01
-2.1870688e-01
-1.7919414e-01
-1.1252646e-01
-3.9927191e-02
2.5111113e-02
8.7860792e-02
1.4817493e-01
1.6976901e-01
9.6876575e-02
-7.8900202e-02
-2.9508096e-01
-4.7113273e-01
-5.5501351e-01
-5.3401308e-01
-4.3047491e-01
-2.8705551e-01
-1.4374823e-01
-2.1313042e-02
6.3102926e-02
7.7088504e-02
-5.4803796e-04
-1.3890339e-01
-2.6227852e-01
-3.0202329e-01
-2.3160583e-01
-6.4670675e-02
1.6362278e-01
4.1399230e-01
6.4971674e-01
8.4627024e-01
9.9309965e-01
1.0687179e+00
1.0331837e+00
8.7084338e-01
6.2835488e-01
3.7408429e-01
1.3777193e-01
-7.2956648e-02
-2.4591425e-01
-3.7313995e-01
-4.4843616e-01
-4.6101881e-01
-4.0710383e-01
-3.0850783e-01
-2.1460228e-01
-1.6774999e-01
-1.6430446e-01
-1.6763343e-01
-1.5240296e-01
-1.2267471e-01
-9.5249472e-02
-7.7905253e-02
-7.0673515e-02
-7.6637929e-02
-1.0215258e-01
-1.5330459e-01
-2.3275152e-01
-3.3166399e-01
-4.2711932e-01
-4.9700651e-01
-5.3342443e-01
-5.3844142e-01
-5.1487221e-01
-4.6304178e-01
-3.8013084e-01
-2.6271726e-01
-1.1886633e-01
2.5585313e-02
1.4774870e-01
2.4937516e-01
3.4498269e-01
4.3811088e-01
5.2587356e-01
6.1769855e-01
7.3276031e-01
8.6915868e-01
9.7467250e-01
9.7125624e-01
8.2313361e-01
5.7023844e-01
2.9318015e-01
5.9713061e-02
-9.8263027e-02
-1.8131248e-01
-2.0816543e-01
-1.9918133e-01
-1.6988297e-01
-1.3428705e-01
-1.0247981e-01
-7.6828809e-02
-6.4562443e-02
-8.7739245e-02
-1.6465146e-01
-2.8273764e-01
-4.0342243e-01
-4.9275414e-01
-5.3638268e-01
-5.3377900e-01
-4.9373129e-01
-4.3410082e-01
-3.7221951e-01
-3.1302388e-01
-2.5541871e-01
-2.0308660e-01
-1.5951522e-01
-1.2321302e-01
-9.3514797e-02
-7.2118852e-02
-5.5093914e-02
-2.6750337e-02
3.3364666e-02
1.3666544e-01
2.8345523e-01
4.6679615e-01
6.6292278e-01
8.1739483e-01
8.6684365e-01
7.9203072e-01
6.2428599e-01
4.0612624e-01
1.7648633e-01
-2.2770588e-02
-1.5199917e-01
-1.9606406e-01
-1.7326578e-01
-1.1838817e-01
-6.9061517e-02
-6.1139651e-02
-1.1493577e-01
-2.1582912e-01
-3.2340626e-01
-4.0100881e-01
-4.2597339e-01
-3.9055090e-01
-3.1033937e-01
-2.2033852e-01
-1.5230044e-01
-1.1703856e-01
-1.1430520e-01
-1.5140286e-01
-2.3184836e-01
-3.3531401e-01
-4.2701669e-01
-4.8101783e-01
-4.8815603e-01
-4.5371913e-01
-3.9411998e-01
-3.2888167e-01
-2.7069606e-01
-2.1725495e-01
-1.5273838e-01
-5.8940227e-02
7.9117350e-02
2.6887383e-01
4.9314245e-01
6.9379200e-01
7.9484587e-01
7.7883090e-01
7.2024918e-01
7.0892818e-01
7.5433017e-01
7.6228857e-01
6.7539325e-01
5.5140822e-01
4.2252352e-01
2.7506193e-01
1.1921154e-01
-2.2496843e-02
-1.2768407e-01
-1.8074071e-01
-1.8346761e-01
-1.5477826e-01
-1.1638107e-01
-7.4072678e-02
-1.6520848e-02
5.8397511e-02
1.2407660e-01
1.3644156e-01
6.7418994e-02
-6.5593430e-02
-2.1158806e-01
-3.2611874e-01
-3.9042261e-01
-4.0769771e-01
-3.9705085e-01
-3.8330706e-01
-3.8405205e-01
-4.0295714e-01
-4.3125812e-01
-4.5429630e-01
-4.5882638e-01
-4.3750293e-01
-3.8789207e-01
-3.1104938e-01
-2.1332081e-01
-1.0520499e-01
5.1478286e-03
1.1665339e-01
2.3069775e-01
3.4672378e-01
4.6811887e-01
6.0001582e-01
7.2534483e-01
7.8686338e-01
7.2191403e-01
5.3045316e-01
2.8282519e-01
5.5631656e-02
-1.1222973e-01
-2.1313273e-01
-2.5358307e-01
-2.4674228e-01
-2.0976670e-01
-1.5548267e-01
-9.0279936e-02
-1.9880365e-02
5.4357344e-02
1.3076033e-01
1.8974639e-01
1.9176495e-01
1.0464184e-01
-5.7619810e-02
-2.3628515e-01
-3.7250232e-01
-4.3850903e-01
-4.3893343e-01
-3.9931444e-01
-3.4943835e-01
-3.0589023e-01
-2.6324153e-01
-2.0822597e-01
-1.4090580e-01
-7.1252327e-02
-3.2700720e-03
6.9288377e-02
1.5714005e-01
2.6944477e-01
4.0664221e-01
5.5147190e-01
6.6868005e-01
7.2242816e-01
6.9977152e-01
6.0541473e-01
4.4319373e-01
2.2899286e-01
7.1076138e-03
-1.7008369e-01
-2.7408631e-01
-3.0489436e-01
-2.7698045e-01
-2.1271810e-01
-1.4182746e-01
-9.0093430e-02
-6.4408884e-02
-6.2398550e-02
-8.9469537e-02
-1.4960702e-01
-2.2969081e-01
-3.0310519e-01
-3.4671700e-01
-3.5500049e-01
-3.4053708e-01
-3.2549451e-01
-3.2876666e-01
-3.5174703e-01
-3.7726819e-01
-3.8989194e-01
-3.9443642e-01
-4.0735297e-01
-4.3671463e-01
-4.7389542e-01
-4.9822196e-01
-4.8691031e-01
-4.2537843e-01
-3.1612824e-01
-1.7687789e-01
-2.3358628e-02
1.4839963e-01
3.6152833e-01
6.3861891e-01
9.8744010e-01
1.3954188e+00
1.7980743e+00
2.0436392e+00
1.9631414e+00
1.5431027e+00
9.7203973e-01
4.7668198e-01
1.7617527e-01
5.8411555e-02
1.1371795e-02
-9.2830744e-02
-3.0936084e-01
-5.9918236e-01
-8.7117927e-01
-1.0493857e+00
-1.1048333e+00
-1.0444196e+00
-8.8919719e-01
-6.5944404e-01
-3.7770795e-01
-7.5706362e-02
1.9331625e-01
3.5159370e-01
3.4149703e-01
1.8117865e-01
-4.2278343e-02
-2.3853084e-01
-3.6349543e-01
-4.2228912e-01
-4.4194665e-01
-4.3777076e-01
-4.0787716e-01
-3.4594205e-01
-2.5022596e-01
-1.2461696e-01
2.9417938e-02
2.1073605e-01
4.0057274e-01
5.5347215e-01
6.2427998e-01
6.1395763e-01
5.6875028e-01
5.2831419e-01
4.9544545e-01
4.4967595e-01
3.7348316e-01
2.6116867e-01
1.1389678e-01
-4.8840026e-02
-1.8865234e-01
-2.7752492e-01
-3.1141760e-01
-3.0302425e-01
-2.8050592e-01
-2.8095846e-01
-3.2325733e-01
-3.8992359e-01
-4.4533989e-01
-4.6721328e-01
-4.5568885e-01
-4.1843703e-01
-3.5923388e-01
-2.7852652e-01
-1.7250567e-01
-3.4321730e-02
1.3269571e-01
3.0235913e-01
4.3624545e-01
5.0824366e-01
5.1172456e-01
4.5324156e-01
3.5250486e-01
2.4036441e-01
1.4742628e-01
9.1213259e-02
6.9567202e-02
6.4829882e-02
5.7876580e-02
4.5591814e-02
4.5733813e-02
7.7420619e-02
1.2935461e-01
1.4685466e-01
6.7910006e-02
-1.1277904e-01
-3.3216035e-01
-5.1757262e-01
-6.3522635e-01
-6.8914675e-01
-7.0020668e-01
-6.8577961e-01
-6.4786977e-01
-5.7405710e-01
-4.5595907e-01
-3.0195578e-01
-1.2009405e-01
9.4028178e-02
3.4817709e-01
6.4439677e-01
9.8102778e-01
1.3479377e+00
1.6836032e+00
1.8333862e+00
1.6285012e+00
1.0633112e+00
3.3844882e-01
-3.0354417e-01
-7.3343190e-01
-9.4496702e-01
-9.9943682e-01
-9.8378725e-01
-9.7824677e-01
-1.0111813e+00
-1.0553383e+00
-1.0763762e+00
-1.0503984e+00
-9.5994809e-01
-8.0082326e-01
-5.8045387e-01
-3.0793997e-01
1.3280344e-02
3.8498545e-01
8.0488549e-01
1.2648164e+00
1.7513474e+00
2.2051673e+00
2.4669128e+00
2.3357011e+00
1.7534483e+00
9.1427446e-01
1.1907687e-01
-4.5215865e-01
-7.6566769e-01
-8.5015471e-01
-7.7901683e-01
-6.7514410e-01
-6.3223149e-01
-6.3929404e-01
-6.5710337e-01
-6.9076204e-01
-7.4696583e-01
-8.0463695e-01
-8.3750233e-01
-8.2459902e-01
-7.4807435e-01
-6.0145077e-01
-3.9084976e-01
-1.2800790e-01
1.6679807e-01
4.4574367e-01
6.2265954e-01
6.2042387e-01
4.4753498e-01
1.9876582e-01
-2.2352770e-02
-1.6213181e-01
-2.1962861e-01
-2.1593296e-01
-1.6271371e-01
-6.1452325e-02
8.3530891e-02
2.5124679e-01
3.9296409e-01
4.6058724e-01
4.5519378e-01
4.2176549e-01
3.9532913e-01
3.7071196e-01
3.2420574e-01
2.5667607e-01
2.0402560e-01
2.0833664e-01
2.9062516e-01
4.2567719e-01
5.2830581e-01
5.0674104e-01
3.5332063e-01
1.4112724e-01
-6.2465111e-02
-2.3125550e-01
-3.7074551e-01
-5.0361743e-01
-6.3837218e-01
-7.5410802e-01
-8.2089035e-01
-8.3110643e-01
-8.0603300e-01
-7.6918401e-01
-7.2599421e-01
-6.7656115e-01
-6.2959281e-01
-5.8809287e-01
-5.4031785e-01
-4.7486534e-01
-3.9129473e-01
-2.9125128e-01
-1.7000291e-01
-2.3750419e-02
1.4263882e-01
3.2031573e-01
5.0503193e-01
6.9806140e-01
9.0318742e-01
1.1262374e+00
1.3649298e+00
1.5731607e+00
1.6377833e+00
1.4515984e+00
1.0382710e+00
5.4820677e-01
1.2478426e-01
-1.7601556e-01
-3.6435935e-01
-4.7333242e-01
-5.3847655e-01
-5.8794418e-01
-6.2244053e-01
-6.2067390e-01
-5.7269547e-01
-4.8642679e-01
-3.7884738e-01
-2.7421533e-01
-1.9653351e-01
-1.5481265e-01
-1.3091042e-01
-9.4486902e-02
-3.5112019e-02
2.6480315e-02
5.0921744e-02
5.3912242e-03
-1.0583198e-01
-2.3305027e-01
-3.1363793e-01
-3.1932187e-01
-2.7990690e-01
-2.5348544e-01
-2.7127999e-01
-3.2207794e-01
-3.7506436e-01
-3.9885762e-01
-3.7337960e-01
-2.9960016e-01
-1.9415484e-01
-7.1053676e-02
7.1003263e-02
2.3816604e-01
4.2338068e-01
6.0988322e-01
7.7778307e-01
8.9065226e-01
8.9502615e-01
7.6469405e-01
5.4715523e-01
3.3942073e-01
2.1503639e-01
1.8973104e-01
2.3305828e-01
2.8739480e-01
2.9410449e-01
2.2796226e-01
1.2172896e-01
3.9622170e-02
1.2145976e-02
1.7096930e-02
1.7254076e-02
-1.8859255e-02
-1.2897251e-01
-3.2804595e-01
-5.6572606e-01
-7.5815467e-01
-8.5131205e-01
-8.3929162e-01
-7.5173296e-01
-6.3279549e-01
-5.1600226e-01
-4.1916733e-01
-3.4474290e-01
-2.8073219e-01
-2.1677152e-01
-1.6013475e-01
-1.3295494e-01
-1.4608733e-01
-1.7723837e-01
-1.8650004e-01
-1.4628670e-01
-5.0409611e-02
9.3225306e-02
2.7212195e-01
4.7103156e-01
6.5692333e-01
7.7021072e-01
7.6001484e-01
6.4172342e-01
4.9794892e-01
4.1090189e-01
4.1279493e-01
4.8276302e-01
5.6820765e-01
6.2524625e-01
6.4750887e-01
6.5935332e-01
6.6715179e-01
6.1701635e-01
4.3912444e-01
1.3341542e-01
-2.1964972e-01
-5.2633951e-01
-7.3410851e-01
-8.3902135e-01
-8.6980123e-01
-8.6368139e-01
-8.4704069e-01
-8.2756207e-01
-8.0435223e-01
-7.8194311e-01
-7.6438738e-01
-7.4449868e-01
-7.0819956e-01
-6.4367146e-01
-5.4196598e-01
-3.9966284e-01
-2.2423897e-01
-2.8690616e-02
1.8071766e-01
4.0466141e-01
6.2251943e-01
7.6045054e-01
7.2844915e-01
5.2538549e-01
2.6551360e-01
7.6617118e-02
2.1921842e-02
1.0738068e-01
3.0872501e-01
5.8111943e-01
8.5339010e-01
1.0451176e+00
1.0917386e+00
9.6515232e-01
7.0538657e-01
4.1297239e-01
1.9665351e-01
1.1857682e-01
1.7042378e-01
2.8824745e-01
3.8424165e-01
3.8148359e-01
2.4692991e-01
1.7502421e-02
-2.2426511e-01
-4.1068515e-01
-5.1509325e-01
-5.4985697e-01
-5.5249538e-01
-5.5883746e-01
-5.8339279e-01
-6.1161239e-01
-6.1731940e-01
-5.9121905e-01
-5.4087052e-01
-4.8147077e-01
-4.3726120e-01
-4.3351755e-01
-4.7391400e-01
-5.3393691e-01
-5.8138607e-01
-5.9809519e-01
-5.8261089e-01
-5.4026293e-01
-4.7449786e-01
-3.8485809e-01
-2.7197617e-01
-1.4122594e-01
1.2694795e-03
1.5483527e-01
3.2631380e-01
5.2398705e-01
7.3662777e-01
9.1158450e-01
9.7399299e-01
8.9873662e-01
7.4981396e-01
6.2292081e-01
5.7181883e-01
5.8436588e-01
6.0004068e-01
5.5249269e-01
4.1469623e-01
2.3648778e-01
1.1945694e-01
1.3091549e-01
2.5623732e-01
4.2433475e-01
5.5415338e-01
5.7351025e-01
4.5258923e-01
2.3502101e-01
-1.0217666e-02
-2.4281834e-01
-4.3968904e-01
-5.8485514e-01
-6.8237716e-01
-7.5110768e-01
-8.0922964e-01
-8.5790244e-01
-8.7682379e-01
-8.5014723e-01
-7.9030979e-01
-7.2838593e-01
-6.8595168e-01
-6.5932587e-01
-6.3274806e-01
-5.9281994e-01
-5.2652786e-01
-4.2166989e-01
-2.7167837e-01
-7.6114939e-02
1.5890677e-01
4.1584864e-01
6.6789996e-01
8.9484681e-01
1.0910585e+00
1.2537647e+00
1.3738878e+00
1.4339583e+00
1.4053916e+00
1.2523377e+00
9.5311542e-01
5.3832375e-01
1.0045559e-01
-2.5882057e-01
-4.8847909e-01
-5.9741354e-01
-6.2787235e-01
-6.2805565e-01
-6.3373633e-01
-6.5328062e-01
-6.7299394e-01
-6.7873471e-01
-6.6277329e-01
-6.2005189e-01
-5.4546622e-01
-4.3656378e-01
-3.0068393e-01
-1.5022441e-01
9.6953062e-03
1.8062788e-01
3.5696619e-01
5.1228740e-01
6.0269204e-01
5.9622978e-01
5.0315463e-01
3.7034440e-01
2.4813449e-01
1.6093784e-01
9.4611201e-02
1.2378739e-02
-1.0366488e-01
-2.3046755e-01
-3.2683371e-01
-3.6567302e-01
-3.4321255e-01
-2.6995946e-01
-1.5830718e-01
-1.9936293e-02
1.2013803e-01
2.1672913e-01
2.3111142e-01
1.7003088e-01
8.7685412e-02
4.2297406e-02
6.2947250e-02
1.4662675e-01
2.6176876e-01
3.5922826e-01
3.9764457e-01
3.7222489e-01
3.0727832e-01
2.1947590e-01
1.0960529e-01
-1.8070418e-02
-1.4594180e-01
-2.5073662e-01
-3.1524158e-01
-3.3708276e-01
-3.3326459e-01
-3.3198623e-01
-3.5134401e-01
-3.8770170e-01
-4.2835279e-01
-4.6598221e-01
-4.9660287e-01
-5.1669001e-01
-5.2357787e-01
-5.1184912e-01
-4.7270555e-01
-3.9848983e-01
-2.8821142e-01
-1.4822426e-01
1.6895970e-02
2.1110722e-01
4.3575620e-01
6.7202146e-01
8.8214293e-01
1.0303829e+00
1.0920996e+00
1.0477364e+00
8.9587047e-01
6.7606273e-01
4.5987700e-01
3.0837038e-01
2.4131692e-01
2.4060098e-01
2.6829102e-01
2.7573129e-01
2.1341609e-01
7.2364283e-02
-9.3689813e-02
-2.1762936e-01
-2.8139104e-01
-3.2913158e-01
-4.1041659e-01
-5.1903797e-01
-6.0770880e-01
-6.3137208e-01
-5.8276073e-01
-5.1294910e-01
-4.9844022e-01
-5.7488293e-01
-7.0941804e-01
-8.3504074e-01
-9.0195512e-01
-8.9704055e-01
-8.2975739e-01
-7.1898775e-01
-5.8992069e-01
-4.6419308e-01
-3.4884318e-01
-2.3139506e-01
-8.3202360e-02
1.1816874e-01
3.5402612e-01
5.5889878e-01
6.7734116e-01
7.3013878e-01
7.9956809e-01
9.5505222e-01
1.2169981e+00
1.5510305e+00
1.8422662e+00
1.9112752e+00
1.6396781e+00
1.0938859e+00
4.7313680e-01
-5.3412264e-02
-4.1808016e-01
-6.2567188e-01
-7.1706943e-01
-7.4020560e-01
-7.3183064e-01
-7.0937856e-01
-6.8041188e-01
-6.6142601e-01
-6.6560681e-01
-6.7856499e-01
-6.6991023e-01
-6.2086140e-01
-5.2658046e-01
-3.9392885e-01
-2.4453098e-01
-1.0572662e-01
4.7322842e-03
8.4515063e-02
1.3453123e-01
1.4892754e-01
1.2491455e-01
7.6518212e-02
3.2517372e-02
1.8623955e-02
4.2665395e-02
9.4877549e-02
1.5898720e-01
2.2399227e-01
2.9067700e-01
3.6748479e-01
4.4549136e-01
4.7710800e-01
4.0917515e-01
2.4879789e-01
6.5164113e-02
-7.5484614e-02
-1.4600740e-01
-1.4749286e-01
-9.0190946e-02
1.3058555e-02
1.4585874e-01
2.8840169e-01
4.0480688e-01
4.4025470e-01
3.5851226e-01
1.8191374e-01
-2.0811343e-02
-1.8715627e-01
-2.9403255e-01
-3.5281143e-01
-3.8563898e-01
-4.0177806e-01
-3.9593352e-01
-3.6232038e-01
-3.1019702e-01
-2.6821659e-01
-2.6191981e-01
-2.8802599e-01
-3.2111303e-01
-3.3932766e-01
-3.3394651e-01
-3.0898292e-01
-2.7534635e-01
-2.3674328e-01
-1.8500764e-01
-1.0605627e-01
9.6476496e-03
1.6040261e-01
3.4018367e-01
5.4498854e-01
7.5576157e-01
9.1685718e-01
9.6094202e-01
8.6646084e-01
6.6869533e-01
4.1777243e-01
1.5384106e-01
-8.9770488e-02
-2.8598277e-01
-4.2435213e-01
-5.1835666e-01
-5.8495000e-01
-6.2428615e-01
-6.2976575e-01
-5.9847493e-01
-5.2696401e-01
-4.1113561e-01
-2.5669045e-01
-8.2788235e-02
9.5723060e-02
2.8509820e-01
4.9548356e-01
7.0401538e-01
8.5859747e-01
9.3123237e-01
9.1326661e-01
7.7418863e-01
5.0635524e-01
1.6909751e-01
-1.4917624e-01
-3.8404965e-01
-5.1788865e-01
-5.7093870e-01
-5.7880667e-01
-5.7579978e-01
-5.7362843e-01
-5.5244244e-01
-4.8805718e-01
-3.7774823e-01
-2.4046047e-01
-9.9722295e-02
3.5061792e-02
1.6811689e-01
3.0350533e-01
4.3207481e-01
5.2364472e-01
5.4099497e-01
4.7723139e-01
3.6734570e-01
2.5318187e-01
1.5263218e-01
6.3137435e-02
-1.8409906e-02
-8.7778368e-02
-1.3917529e-01
-1.6640877e-01
-1.6639188e-01
-1.4638801e-01
-1.1825150e-01
-8.7295848e-02
-5.3297507e-02
-1.9927566e-02
1.5793661e-03
-1.6241429e-03
-3.5281615e-02
-9.1601504e-02
-1.5140170e-01
-1.9636837e-01
-2.2114392e-01
-2.3380685e-01
-2.4294411e-01
-2.4792470e-01
-2.4240415e-01
-2.2368626e-01
-1.9704064e-01
-1.7035204e-01
-1.4727392e-01
-1.2362278e-01
-8.5879654e-02
-1.9048197e-02
7.6073736e-02
1.7492809e-01
2.4469797e-01
2.7537438e-01
2.8857221e-01
3.0753244e-01
3.3374035e-01
3.5285432e-01
3.4424803e-01
2.9224206e-01
2.0464376e-01
1.1639164e-01
6.7844754e-02
7.8852639e-02
1.4262710e-01
2.2975665e-01
2.9592392e-01
3.0382692e-01
2.4561265e-01
1.4728518e-01
4.6300553e-02
-3.9297657e-02
-1.1809716e-01
-2.0545885e-01
-2.9907774e-01
-3.7553037e-01
-4.0847196e-01
-3.8763543e-01
-3.2909878e-01
-2.7017888e-01
-2.4235872e-01
-2.4518107e-01
-2.5462358e-01
-2.5130878e-01
-2.3030842e-01
-1.9897939e-01
-1.7327943e-01
-1.6063498e-01
-1.4482087e-01
-9.5091401e-02
8.7852881e-03
1.6231762e-01
3.5127175e-01
5.6534446e-01
7.6724753e-01
8.5864112e-01
7.3830078e-01
4.1057580e-01
-9.2290337e-03
-3.9301675e-01
-6.6545213e-01
-8.0278705e-01
-8.1822090e-01
-7.4785414e-01
-6.3162496e-01
-4.9214366e-01
-3.3971140e-01
-1.9592067e-01
-8.3211755e-02
7.1781310e-03
1.1330054e-01
2.6745659e-01
4.8234474e-01
7.5806009e-01
1.0662076e+00
1.3142935e+00
1.3613339e+00
1.1345046e+00
7.1600029e-01
2.6265568e-01
-1.2385260e-01
-4.4015192e-01
-7.1380048e-01
-9.2406544e-01
-1.0355945e+00
-1.0421710e+00
-9.6705574e-01
-8.6280790e-01
-7.8229934e-01
-7.3291034e-01
-6.7002331e-01
-5.4219542e-01
-3.2827057e-01
-3.8306414e-02
2.9026782e-01
5.9778823e-01
8.3352207e-01
9.9359841e-01
1.1037456e+00
1.1649434e+00
1.1432587e+00
1.0126572e+00
8.0362805e-01
5.9331526e-01
4.4584104e-01
3.7895510e-01
3.5834378e-01
3.0762898e-01
1.6400639e-01
-5.7840942e-02
-2.8623622e-01
-4.6686595e-01
-5.8811107e-01
-6.5969002e-01
-6.8942951e-01
-6.7705462e-01
-6.2593833e-01
-5.5386618e-01
-4.9580498e-01
-4.8505315e-01
-5.1919979e-01
-5.6125350e-01
-5.7910313e-01
-5.6955343e-01
-5.4310292e-01
-5.0545937e-01
-4.5567521e-01
-3.9165727e-01
-3.1694262e-01
-2.4024422e-01
-1.6877852e-01
-9.8704929e-02
-9.0617003e-03
1.2818536e-01
3.3028264e-01
5.9670040e-01
9.1483744e-01
1.2575545e+00
1.5553251e+00
1.6934036e+00
1.5892514e+00
1.2776789e+00
8.8490676e-01
5.2419189e-01
2.4295940e-01
3.8420535e-02
-1.0890779e-01
-2.1491334e-01
-2.9226267e-01
-3.4459147e-01
-3.6629359e-01
-3.6012009e-01
-3.4285186e-01
-3.3490188e-01
-3.5309141e-01
-4.0436549e-01
-4.7855079e-01
-5.5322232e-01
-6.0703572e-01
-6.3085067e-01
-6.3149015e-01
-6.2256788e-01
-6.1413472e-01
-6.0658861e-01
-5.8602819e-01
-5.3534665e-01
-4.5448094e-01
-3.6240210e-01
-2.7640119e-01
-1.9674716e-01
-1.1199515e-01
-1.3319158e-02
9.6385019e-02
2.0154565e-01
2.8542234e-01
3.5041830e-01
4.2117738e-01
5.2843532e-01
6.9014081e-01
8.9989440e-01
1.1281802e+00
1.3272019e+00
1.4247638e+00
1.3376824e+00
1.0365261e+00
5.9583769e-01
1.4986729e-01
-1.9916225e-01
-4.1663207e-01
-5.1501657e-01
-5.3812059e-01
-5.5241574e-01
-6.0902116e-01
-6.9865088e-01
-7.7159468e-01
-7.9568272e-01
-7.7023432e-01
-7.0709342e-01
-6.1531898e-01
-4.9650494e-01
-3.4763737e-01
-1.6441952e-01
4.1927706e-02
2.2113326e-01
3.0074499e-01
2.5157115e-01
1.2388839e-01
4.8250675e-04
-6.5131561e-02
-6.7908303e-02
-4.2550859e-02
-4.2228733e-02
-1.0516345e-01
-2.1019271e-01
-2.7705609e-01
-2.3161045e-01
-4.9393984e-02
2.4770385e-01
6.0649041e-01
9.5300622e-01
1.1860720e+00
1.2093844e+00
1.0131289e+00
6.9615848e-01
3.9010475e-01
1.8167483e-01
1.0303338e-01
1.5117422e-01
2.9530079e-01
4.7256237e-01
5.8024287e-01
5.0552397e-01
2.0990722e-01
-2.1639543e-01
-6.1987907e-01
-8.9612563e-01
-1.0212436e+00
-1.0211874e+00
-9.4027537e-01
-8.2484768e-01
-7.1785798e-01
-6.4399052e-01
-6.0675969e-01
-5.9991179e-01
-6.0373735e-01
-5.9173634e-01
-5.5287336e-01
-4.9768903e-01
-4.4206667e-01
-3.9159806e-01
-3.4836218e-01
-3.2092876e-01
-3.1286250e-01
-3.0755343e-01
-2.7740544e-01
-2.0752847e-01
-9.9060441e-02
4.4285171e-02
2.2105307e-01
4.3588404e-01
7.0678130e-01
1.0541506e+00
1.4579313e+00
1.8054274e+00
1.9382102e+00
1.7967451e+00
1.4647399e+00
1.0640786e+00
6.5913150e-01
2.6998385e-01
-6.9854225e-02
-3.1509006e-01
-4.5403930e-01
-5.1234681e-01
-5.2375497e-01
-5.1507621e-01
-5.0191535e-01
-4.8769051e-01
-4.7333906e-01
-4.6641280e-01
-4.7323936e-01
-4.8695842e-01
-4.8587212e-01
-4.4681886e-01
-3.6137834e-01
-2.4067316e-01
-1.1714418e-01
-3.1272970e-02
6.1533840e-03
2.9051463e-02
7.9281014e-02
1.6916114e-01
2.8910808e-01
4.2255493e-01
5.3458329e-01
5.6714308e-01
4.7764898e-01
2.9076479e-01
8.4772881e-02
-7.2921334e-02
-1.5575229e-01
-1.7015449e-01
-1.3994982e-01
-8.9606869e-02
-3.4288669e-02
2.0113081e-02
5.8248485e-02
3.6224006e-02
-8.6342884e-02
-2.8632217e-01
-4.8191717e-01
-5.9833616e-01
-6.0831162e-01
-5.2941642e-01
-4.0329860e-01
-2.7351032e-01
-1.6748230e-01
-7.5528079e-02
3.4266462e-02
1.6874542e-01
3.0068317e-01
3.9030133e-01
4.0294920e-01
3.2578541e-01
1.8100684e-01
2.1618873e-02
-9.7261796e-02
-1.5114119e-01
-1.5168733e-01
-1.2646936e-01
-1.0530638e-01
-1.1571022e-01
-1.6359618e-01
-2.1769237e-01
-2.3151963e-01
-1.7778057e-01
-5.5004337e-02
1.2203417e-01
2.8875576e-01
3.2170322e-01
1.5387097e-01
-1.4412112e-01
-4.2848066e-01
-5.8863498e-01
-5.9035641e-01
-4.6217204e-01
-2.6874858e-01
-7.3614027e-02
9.0119748e-02
2.3446124e-01
3.9763163e-01
5.9504697e-01
7.9192007e-01
9.1959071e-01
9.3117361e-01
8.4564779e-01
7.2621514e-01
6.2571461e-01
5.6102032e-01
5.1005140e-01
4.1684114e-01
2.3713542e-01
-1.4164962e-02
-2.7658340e-01
-4.8919116e-01
-6.1838006e-01
-6.6326500e-01
-6.4613602e-01
-5.9361590e-01
-5.2383501e-01
-4.5123186e-01
-3.9509604e-01
-3.7150414e-01
-3.8188507e-01
-4.1429516e-01
-4.5293798e-01
-4.8759811e-01
-5.1691382e-01
-5.4313912e-01
-5.5969924e-01
-5.4434068e-01
-4.7008076e-01
-3.2961837e-01
-1.4383155e-01
6.3541831e-02
2.9081175e-01
5.5157242e-01
8.5079846e-01
1.1758119e+00
1.4916661e+00
1.7202644e+00
1.7566051e+00
1.5480751e+00
1.1470351e+00
6.7676123e-01
2.5348898e-01
-6.5934979e-02
-2.8023137e-01
-4.1026599e-01
-4.8060483e-01
-5.1889345e-01
-5.4199180e-01
-5.5046240e-01
-5.4271774e-01
-5.1707786e-01
-4.7659934e-01
-4.4485382e-01
-4.5695923e-01
-5.2428146e-01
-6.1430174e-01
-6.7529298e-01
-6.7826152e-01
-6.2552702e-01
-5.3765358e-01
-4.4473023e-01
-3.7507487e-01
-3.3875018e-01
-3.1842604e-01
-2.8439212e-01
-2.2015847e-01
-1.2718887e-01
-1.3420384e-02
1.1739171e-01
2.7443464e-01
4.7803269e-01
7.3848524e-01
1.0212594e+00
1.2380221e+00
1.3078113e+00
1.2298159e+00
1.0677552e+00
8.8049699e-01
6.9373798e-01
5.0545509e-01
3.0381060e-01
9.6166954e-02
-8.5160280e-02
-2.0393708e-01
-2.4951708e-01
-2.5142873e-01
-2.5395927e-01
-2.8275692e-01
-3.5002914e-01
-4.6196887e-01
-5.9909503e-01
-7.1239430e-01
-7.5592508e-01
-7.1878428e-01
-6.2272793e-01
-5.0382684e-01
-3.9856382e-01
-3.3857422e-01
-3.4090713e-01
-3.8897757e-01
-4.4182286e-01
-4.6635408e-01
-4.4884755e-01
-3.8908327e-01
-2.9703482e-01
-1.9478175e-01
-1.0883646e-01
-4.1374803e-02
4.2525382e-02
1.8132719e-01
3.6602695e-01
5.3230728e-01
6.4624574e-01
7.3004882e-01
7.7047464e-01
7.2943935e-01
6.1953179e-01
5.0424303e-01
4.5751753e-01
5.2203076e-01
6.8053965e-01
8.6084494e-01
9.7830560e-01
9.8425844e-01
8.8316041e-01
7.0367298e-01
4.6745108e-01
1.9063725e-01
-1.0130232e-01
-3.7305163e-01
-5.9882302e-01
-7.7022652e-01
-8.8698420e-01
-9.5086502e-01
-9.6730469e-01
-9.4584412e-01
-8.9797179e-01
-8.3771314e-01
-7.7754538e-01
-7.1946375e-01
-6.5673638e-01
-5.8832925e-01
-5.2369032e-01
-4.7181178e-01
-4.3039440e-01
-3.8206401e-01
-3.0006363e-01
-1.6230403e-01
3.8755038e-02
2.9416109e-01
5.8680904e-01
8.9913231e-01
1.2058809e+00
1.4494825e+00
1.5357422e+00
1.4000275e+00
1.0816887e+00
7.0248577e-01
3.7471855e-01
1.4732573e-01
1.7559784e-02
-4.5257738e-02
-8.4849178e-02
-1.2816429e-01
-1.7318773e-01
-2.1158410e-01
-2.4117737e-01
-2.6683177e-01
-3.0051219e-01
-3.5631597e-01
-4.3972481e-01
-5.3599927e-01
-6.1967670e-01
-6.7865717e-01
-7.1775455e-01
-7.4138517e-01
-7.4312726e-01
-7.1805479e-01
-6.7326366e-01
-6.1772533e-01
-5.5545845e-01
-4.8381948e-01
-3.8872209e-01
-2.4786787e-01
-4.2450143e-02
2.3329831e-01
5.7429558e-01
9.6020703e-01
1.3278913e+00
1.5550213e+00
1.5231529e+00
1.2311178e+00
8.0879790e-01
4.0572855e-01
9.8621878e-02
-1.0582888e-01
-2.2222551e-01
-2.6112687e-01
-2.3827307e-01
-1.7124835e-01
-7.1752459e-02
4.5661907e-02
1.6772183e-01
2.8587122e-01
3.6739253e-01
3.4096291e-01
1.5552327e-01
-1.5081016e-01
-4.7226556e-01
-7.1867782e-01
-8.6326419e-01
-9.2889499e-01
-9.4924369e-01
-9.4818855e-01
-9.3962303e-01
-9.2050064e-01
-8.7334352e-01
-7.8537941e-01
-6.5394364e-01
-4.8160564e-01
-2.7569473e-01
-5.6636591e-02
1.3435672e-01
2.6255970e-01
3.3801420e-01
4.1229104e-01
5.4439500e-01
7.6362686e-01
1.0362100e+00
1.2328242e+00
1.1726790e+00
7.7717383e-01
1.6020036e-01
-4.6425881e-01
-9.3219036e-01
-1.1729755e+00
-1.1669965e+00
-9.2483727e-01
-5.0553111e-01
1.0364450e-03
