2.3984959e-03
1.3332076e-02
3.1214540e-02
6.0610325e-02
1.0326426e-01
1.4972042e-01
1.7837243e-01
1.6515203e-01
1.0697909e-01
3.4141746e-02
-1.7181869e-02
-2.5599136e-02
1.3568985e-02
8.5558816e-02
1.6395056e-01
2.1986165e-01
2.2801570e-01
1.8101444e-01
9.3634241e-02
-8.3333859e-03
-9.8846966e-02
-1.5847755e-01
-1.8029572e-01
-1.6996096e-01
-1.3775581e-01
-9.6301229e-02
-5.8407644e-02
-3.0892392e-02
-1.1713059e-02
5.5666460e-03
2.3661822e-02
3.9862914e-02
5.0204962e-02
5.1271493e-02
3.9301066e-02
1.0560936e-02
-3.8913978e-02
-1.0686791e-01
-1.8038473e-01
-2.3790929e-01
-2.5624375e-01
-2.2582078e-01
-1.4712945e-01
-1.3724939e-02
1.9123096e-01
4.6374945e-01
7.3441435e-01
8.7320689e-01
7.5363484e-01
3.6445456e-01
-1.4023946e-01
-5.4528611e-01
-7.2375789e-01
-6.8249141e-01
-4.9715900e-01
-2.4673259e-01
1.5078729e-02
2.5684608e-01
4.4405052e-01
5.2662755e-01
4.5597314e-01
2.3827174e-01
-4.1360643e-02
-2.7366999e-01
-3.9515079e-01
-4.0491033e-01
-3.3998955e-01
-2.4630675e-01
-1.5614121e-01
-8.8082436e-02
-5.5977215e-02
-5.9732325e-02
-7.9856912e-02
-9.5832614e-02
-9.1127603e-02
-4.4746392e-02
6.5426417e-02
2.5096399e-01
4.9068690e-01
7.1035462e-01
7.8839251e-01
6.3327049e-01
2.7761608e-01
-1.2764851e-01
-4.2226249e-01
-5.3957164e-01
-5.0699713e-01
-3.8804029e-01
-2.4196849e-01
-1.1504498e-01
-3.8742541e-02
-1.8553119e-02
-3.1153327e-02
-4.4653408e-02
-3.9652685e-02
-1.1371426e-02
3.6363842e-02
9.3689450e-02
1.4557372e-01
1.7530545e-01
1.6848641e-01
1.2337183e-01
5.4789672e-02
-1.4425823e-02
-6.5877424e-02
-9.2532670e-02
-9.6188499e-02
-8.4624715e-02
-6.5187558e-02
-4.3928686e-02
-2.6244363e-02
-1.3084080e-02
-3.4313458e-03
2.3784023e-03
2.8563064e-03
-2.0841578e-03
-7.3660339e-03
-3.6627471e-03
1.6745580e-02
5.5600771e-02
1.0412843e-01
1.4358175e-01
1.5560220e-01
1.3100895e-01
7.3519533e-02
7.8346121e-04
-6.4942016e-02
-1.0920573e-01
-1.2935407e-01
-1.3006203e-01
-1.1767474e-01
-9.8518925e-02
-7.4268901e-02
-4.1679033e-02
1.3908351e-03
5.2422023e-02
1.0666979e-01
1.5534201e-01
1.7728265e-01
1.4033243e-01
2.1787229e-02
-1.5416318e-01
-3.1642817e-01
-3.9252946e-01
-3.4601377e-01
-1.9155637e-01
2.8765876e-02
2.7000111e-01
4.8114733e-01
6.0535140e-01
5.9641122e-01
4.4663680e-01
1.9616979e-01
-7.8017678e-02
-2.9262065e-01
-3.9435345e-01
-3.8150140e-01
-2.9722697e-01
-1.9642761e-01
-1.3631977e-01
-1.3242977e-01
-1.3383201e-01
-1.0922321e-01
-6.8331459e-02
-1.8413612e-02
3.1093197e-02
6.6196255e-02
8.2468995e-02
8.6121736e-02
8.7565849e-02
9.3806837e-02
1.0036939e-01
9.8926238e-02
8.3914206e-02
5.0940584e-02
-3.8230548e-04
-5.7964781e-02
-9.1350918e-02
-7.0284034e-02
9.9017968e-03
1.1468194e-01
1.7843351e-01
1.5270552e-01
4.9683644e-02
-7.3544142e-02
-1.5981838e-01
-1.8572830e-01
-1.6032048e-01
-1.0338846e-01
-3.9232786e-02
1.1188248e-02
3.8910276e-02
4.6989557e-02
4.4832885e-02
4.2009445e-02
4.5328589e-02
5.5256785e-02
6.7217289e-02
7.3477736e-02
6.5626035e-02
3.9680526e-02
2.7628460e-04
-4.1186947e-02
-7.3029019e-02
-8.7643153e-02
-8.4842691e-02
-7.0666193e-02
-5.2355841e-02
-3.3919664e-02
-1.7728140e-02
-4.8970893e-03
9.2516790e-03
3.2991432e-02
6.6412606e-02
8.9448077e-02
7.0083606e-02
-6.0392634e-03
-1.0772813e-01
-1.7481292e-01
-1.6627953e-01
-7.3282075e-02
9.6064887e-02
3.1772205e-01
5.1955445e-01
5.8110914e-01
4.2202410e-01
8.2996491e-02
-2.8476357e-01
-5.2427942e-01
-5.7887705e-01
-4.8562037e-01
-3.1233312e-01
-1.2182038e-01
3.9188934e-02
1.4323167e-01
1.8728993e-01
1.8944000e-01
1.7063096e-01
1.4096894e-01
9.9646055e-02
2.9406958e-02
-7.9597820e-02
-1.9061498e-01
-2.4328679e-01
-1.9772221e-01
-5.4397811e-02
1.4939183e-01
3.3612054e-01
4.0235277e-01
2.9911627e-01
7.9748416e-02
-1.3878794e-01
-2.5568247e-01
-2.4415432e-01
-1.4085204e-01
-1.0447512e-02
8.3039757e-02
1.0773465e-01
7.0240964e-02
8.4585636e-05
-6.9963131e-02
-1.1783901e-01
-1.3443722e-01
-1.2016639e-01
-7.6826591e-02
-1.3438336e-02
5.0936592e-02
9.6620991e-02
1.1134900e-01
9.4294544e-02
5.4297678e-02
6.1270054e-03
-3.8193093e-02
-7.1408038e-02
-8.7583586e-02
-8.3049256e-02
-5.5534286e-02
-6.4293782e-03
5.4477324e-02
1.1011880e-01
1.4091261e-01
1.3242764e-01
8.5925547e-02
2.0277190e-02
-4.0708746e-02
-8.0908865e-02
-9.6438918e-02
-9.1765036e-02
-7.2582547e-02
-4.5127005e-02
-1.3813470e-02
1.9711601e-02
5.1247075e-02
7.2923662e-02
7.7287246e-02
6.1400943e-02
2.9916103e-02
-3.3932368e-03
-2.4011836e-02
-2.6472445e-02
-1.7167181e-02
-9.9918977e-03
-1.4397244e-02
-2.9068489e-02
-4.2529606e-02
-4.0087424e-02
-1.5532896e-02
2.5200910e-02
6.9143504e-02
1.0238866e-01
1.1416343e-01
9.9535733e-02
6.1543205e-02
1.0816851e-02
-3.8808468e-02
-7.1688717e-02
-7.7754130e-02
-6.3210331e-02
-4.4662565e-02
-4.9620552e-02
-8.2313959e-02
-1.0613168e-01
-1.0526117e-01
-8.7458290e-02
-5.4912896e-02
-1.3914651e-02
2.1678620e-02
3.7741378e-02
3.3831401e-02
2.4521033e-02
2.3397148e-02
3.4241025e-02
5.2004174e-02
6.5441856e-02
6.5842778e-02
5.2524996e-02
3.1080955e-02
1.0165648e-02
-4.0557855e-03
-1.0033667e-02
-9.1553596e-03
-5.0727044e-03
-1.9226358e-03
-2.5797323e-03
-7.3336313e-03
-1.3617273e-02
-1.7239919e-02
-1.3822917e-02
-2.1783536e-03
1.4305201e-02
2.8914467e-02
3.3441226e-02
2.1880627e-02
-4.5641871e-03
-3.5718499e-02
-5.7656997e-02
-5.9024207e-02
-3.6619407e-02
1.9641502e-03
4.3456101e-02
7.3560903e-02
7.9665924e-02
5.7736484e-02
1.6056537e-02
-2.8733590e-02
-5.9388620e-02
-6.6487670e-02
-5.0556856e-02
-1.8846671e-02
1.7259425e-02
4.5840455e-02
5.8302075e-02
5.2188868e-02
3.1640361e-02
4.1875682e-03
-2.2435730e-02
-4.2382752e-02
-5.2262940e-02
-5.0908295e-02
-3.8773334e-02
-1.7279460e-02
9.6144556e-03
3.5085472e-02
5.1007821e-02
4.9685548e-02
2.7232530e-02
-1.1153867e-02
-5.1079149e-02
-7.5381347e-02
-7.1841495e-02
-4.0049210e-02
9.8814250e-03
6.1883254e-02
9.6399960e-02
9.7177941e-02
6.0093998e-02
-1.3966417e-03
-6.0475065e-02
-9.2935691e-02
-8.9032839e-02
-5.3601766e-02
-4.0158395e-03
3.7060290e-02
5.2954510e-02
4.1401948e-02
1.6181733e-02
-4.1067689e-03
-8.8085628e-03
1.6181560e-04
1.2665375e-02
1.9846352e-02
1.7642089e-02
7.0656835e-03
-5.6704575e-03
-1.4332488e-02
-1.6178495e-02
-1.1501993e-02
-3.9608878e-03
2.6810217e-03
7.1946867e-03
8.1114313e-03
3.3295074e-03
-6.9574284e-03
-1.9536079e-02
-2.8583228e-02
-2.7966448e-02
-1.6178210e-02
3.4180873e-03
2.5819082e-02
4.4883870e-02
5.5220910e-02
5.4591834e-02
4.3130198e-02
2.3087792e-02
-1.7330847e-03
-2.6594201e-02
-4.6571228e-02
-5.9221531e-02
-6.4776546e-02
-6.3384559e-02
-5.2598154e-02
-3.0341971e-02
1.3365937e-03
3.6889316e-02
6.5209619e-02
7.2575571e-02
5.3740719e-02
1.5866976e-02
-2.3709470e-02
-4.3402669e-02
-3.2328928e-02
2.4920745e-03
4.1068835e-02
5.8295751e-02
3.9934962e-02
-5.3685684e-03
-5.1705203e-02
-7.4069289e-02
-6.4364700e-02
-3.0923638e-02
1.1327010e-02
4.5960759e-02
6.0608541e-02
5.1922049e-02
2.1874217e-02
-2.3108277e-02
-6.9397947e-02
-9.9741070e-02
-9.7937305e-02
-5.1939065e-02
3.6695276e-02
1.4964811e-01
2.5617856e-01
3.1053593e-01
2.7355220e-01
1.5557377e-01
1.4505496e-02
-9.5163354e-02
-1.5997896e-01
-2.0847552e-01
-2.5678872e-01
-2.7575520e-01
-2.4719018e-01
-1.8051067e-01
-8.9391203e-02
5.4435143e-03
7.9045412e-02
1.1123778e-01
1.0192346e-01
7.2395211e-02
4.2491015e-02
2.1890502e-02
1.3576951e-02
1.2791681e-02
1.3386636e-02
1.3554433e-02
1.5228711e-02
2.0279266e-02
2.5950402e-02
2.6723383e-02
1.8832206e-02
3.2322134e-03
-1.3916097e-02
-2.4572651e-02
-2.2896609e-02
-7.9269062e-03
1.5578416e-02
3.9619527e-02
5.4732550e-02
5.4501290e-02
3.9533484e-02
1.3842399e-02
-1.6747923e-02
-4.4835713e-02
-6.3921753e-02
-6.9935037e-02
-6.1566303e-02
-4.2287472e-02
-1.9348135e-02
2.7433819e-03
2.3536861e-02
4.1584098e-02
5.3070400e-02
5.4164764e-02
4.2606966e-02
1.9966154e-02
-7.4509388e-03
-3.1522872e-02
-4.7272380e-02
-5.4036361e-02
-5.3621949e-02
-4.8554687e-02
-3.7101969e-02
-1.2935165e-02
2.7278106e-02
7.9676004e-02
1.3305465e-01
1.6861325e-01
1.6362328e-01
1.0044440e-01
-2.1765516e-02
-1.7116449e-01
-2.9244440e-01
-3.3844614e-01
-2.8697738e-01
-1.4786471e-01
4.9747485e-02
2.6732810e-01
4.5029456e-01
5.3499001e-01
4.7576816e-01
2.8045917e-01
1.5063776e-02
-2.2850991e-01
-3.7790845e-01
-4.0928113e-01
-3.4276529e-01
-2.2255282e-01
-9.9235854e-02
-1.5933868e-02
9.1603849e-03
-1.0225131e-02
-4.0522530e-02
-4.6263628e-02
-6.1881919e-03
7.7886980e-02
1.8176563e-01
2.6315934e-01
2.7541530e-01
1.9694896e-01
4.5454534e-02
-1.2861165e-01
-2.6299974e-01
-3.2144650e-01
-3.0576002e-01
-2.3444629e-01
-1.2115561e-01
2.3311679e-02
1.8337782e-01
3.3311476e-01
4.2460901e-01
4.1083658e-01
2.9244499e-01
1.2205279e-01
-4.0874707e-02
-1.5792641e-01
-2.1774490e-01
-2.3350836e-01
-2.2263542e-01
-1.9911175e-01
-1.7080387e-01
-1.3239094e-01
-7.2302486e-02
1.4936075e-02
1.2032160e-01
2.1303135e-01
2.5241603e-01
2.0709961e-01
7.4935653e-02
-1.0102074e-01
-2.5006649e-01
-3.0936351e-01
-2.5486498e-01
-1.0621589e-01
8.6319698e-02
2.4851923e-01
3.1126824e-01
2.5907345e-01
1.3750699e-01
1.4567502e-02
-6.4173922e-02
-8.9500062e-02
-7.6095381e-02
-5.0825039e-02
-3.7961686e-02
-4.5218132e-02
-6.3362272e-02
-7.8671764e-02
-8.2578180e-02
-7.2461339e-02
-4.7710979e-02
-9.7609394e-03
3.4219012e-02
7.2379057e-02
9.1629816e-02
8.3736186e-02
5.4437259e-02
2.3446429e-02
1.0679080e-02
2.7100498e-02
7.0715906e-02
1.2278795e-01
1.5438276e-01
1.4170856e-01
8.2163130e-02
3.5552122e-03
-5.6167828e-02
-8.3115088e-02
-9.2035648e-02
-1.2205658e-01
-1.8319979e-01
-2.2741157e-01
-2.2995074e-01
-2.0244969e-01
-1.5443264e-01
-9.9692257e-02
-5.0927593e-02
-1.0459127e-02
3.4240172e-02
1.0422782e-01
2.0726207e-01
3.2900871e-01
4.2165770e-01
4.1634362e-01
2.8387265e-01
6.9699610e-02
-1.3791733e-01
-2.6967175e-01
-3.0650289e-01
-2.6613453e-01
-1.8011597e-01
-8.4805336e-02
-1.0940484e-02
2.9256145e-02
4.1980924e-02
4.0780820e-02
3.4336505e-02
2.3337743e-02
6.9648777e-03
-9.7095475e-03
-1.9473118e-02
-1.9492530e-02
-1.1714323e-02
-2.6538943e-03
3.1401107e-04
-6.3022919e-03
-1.9771277e-02
-3.1992691e-02
-3.3766257e-02
-1.7135655e-02
2.1273936e-02
7.2636507e-02
1.1538597e-01
1.2541355e-01
9.1970728e-02
2.7352593e-02
-4.4584962e-02
-1.0500149e-01
-1.4792827e-01
-1.7805781e-01
-2.0185010e-01
-2.1167659e-01
-1.7855371e-01
-7.8846456e-02
8.4616499e-02
2.8638986e-01
4.7835896e-01
5.8653321e-01
5.3693449e-01
3.1608886e-01
2.8342952e-03
-2.7941884e-01
-4.4768372e-01
-4.8232327e-01
-3.9706440e-01
-2.3490873e-01
-5.5021879e-02
9.4312021e-02
1.8664823e-01
2.2382567e-01
2.2258833e-01
1.9745956e-01
1.4994366e-01
7.8372123e-02
-4.5153001e-03
-8.1146696e-02
-1.3912071e-01
-1.7054678e-01
-1.7252075e-01
-1.4875938e-01
-1.0683798e-01
-5.6476751e-02
-9.0352370e-03
2.4705441e-02
3.9420483e-02
3.4406779e-02
8.8775423e-03
-3.2441296e-02
-7.7043592e-02
-1.1251991e-01
-1.3321499e-01
-1.3890919e-01
-1.2792679e-01
-9.6099784e-02
-3.9516631e-02
4.8972675e-02
1.8078274e-01
3.5178202e-01
5.1430616e-01
5.7615023e-01
4.4167937e-01
1.1636643e-01
-2.4626058e-01
-4.7180503e-01
-4.9402363e-01
-3.4897780e-01
-1.0576719e-01
1.5208582e-01
3.2123232e-01
3.2581020e-01
1.7366241e-01
-3.6062699e-02
-1.9069083e-01
-2.4521790e-01
-2.1363353e-01
-1.3621959e-01
-5.8149586e-02
-5.9329964e-03
1.5593558e-02
1.5474708e-02
1.0693613e-02
1.5431621e-02
3.3479060e-02
6.1128276e-02
8.8522990e-02
9.8475987e-02
7.7756559e-02
2.7310335e-02
-3.7060658e-02
-9.0579089e-02
-1.1401243e-01
-1.0289219e-01
-6.3529760e-02
-8.4611151e-03
4.5104665e-02
7.8946980e-02
8.1606252e-02
5.3539222e-02
5.1159086e-03
-4.4777931e-02
-7.4164428e-02
-7.1085485e-02
-3.7135245e-02
1.8546845e-02
8.2410967e-02
1.3557964e-01
1.5441212e-01
1.1899344e-01
2.8654075e-02
-8.9210104e-02
-1.9617997e-01
-2.5371621e-01
-2.3214132e-01
-1.3467622e-01
9.0325952e-03
1.6103291e-01
2.8835688e-01
3.6670462e-01
3.6347207e-01
2.4347614e-01
4.3016868e-02
-1.2893085e-01
-2.1724613e-01
-2.3594282e-01
-2.0536884e-01
-1.4784858e-01
-8.9635774e-02
-5.2729138e-02
-4.3513074e-02
-5.0231737e-02
-5.5079048e-02
-4.4733178e-02
-1.1754918e-02
4.4053287e-02
1.1018694e-01
1.5599593e-01
1.4734558e-01
7.6936577e-02
-2.6672962e-02
-1.1420429e-01
-1.4477384e-01
-1.0799308e-01
-2.0500714e-02
7.7610937e-02
1.3805473e-01
1.3337111e-01
6.6821642e-02
-2.5377045e-02
-9.2607840e-02
-1.0147903e-01
-4.3972453e-02
5.7842316e-02
1.5410396e-01
1.9112706e-01
1.4256727e-01
3.2301959e-02
-8.3256267e-02
-1.6173770e-01
-1.9528405e-01
-1.9610332e-01
-1.8214984e-01
-1.6860215e-01
-1.5399896e-01
-1.1663629e-01
-2.9068265e-02
1.1864681e-01
3.0746077e-01
4.7180529e-01
5.0996825e-01
3.7042301e-01
1.0537664e-01
-1.6425922e-01
-3.2767114e-01
-3.5040553e-01
-2.6645737e-01
-1.3705338e-01
-2.2039376e-02
4.1653907e-02
4.6790854e-02
1.2042610e-02
-3.4069848e-02
-7.1897612e-02
-9.6162252e-02
-1.0945743e-01
-1.1128843e-01
-9.9888300e-02
-7.2364244e-02
-1.7325417e-02
7.5037999e-02
1.9785998e-01
3.2818159e-01
4.2412356e-01
4.2927922e-01
3.1162447e-01
9.2105298e-02
-1.5864468e-01
-3.4452545e-01
-4.0120093e-01
-3.2963648e-01
-1.6884350e-01
3.1552299e-02
2.0291342e-01
2.6734712e-01
1.9282553e-01
2.3925477e-02
-1.4928456e-01
-2.5719293e-01
-2.7970995e-01
-2.2970760e-01
-1.3913392e-01
-4.1016982e-02
4.4820356e-02
1.1577422e-01
1.7618008e-01
2.1960442e-01
2.2840129e-01
1.8703085e-01
9.8949934e-02
-1.0273682e-02
-1.0503311e-01
-1.5995897e-01
-1.7167733e-01
-1.5039339e-01
-1.1154517e-01
-6.6269112e-02
-1.8432842e-02
2.9260454e-02
7.3806312e-02
1.0901346e-01
1.2517687e-01
1.1710302e-01
9.0243964e-02
5.5292164e-02
2.1017925e-02
-8.8772616e-03
-3.4871369e-02
-6.2681799e-02
-9.0681017e-02
-1.0131777e-01
-8.2579830e-02
-3.3268126e-02
4.2462762e-02
1.2863444e-01
1.8135844e-01
1.5055044e-01
3.6104497e-02
-1.0965704e-01
-2.1580910e-01
-2.3447340e-01
-1.7024418e-01
-6.3077571e-02
4.0513535e-02
1.0780968e-01
1.2989126e-01
1.1240373e-01
7.1267325e-02
2.6195796e-02
-1.0180261e-02
-3.2941260e-02
-4.4044387e-02
-4.8826339e-02
-5.3392796e-02
-5.8371474e-02
-5.5843363e-02
-3.6557313e-02
2.2120417e-03
5.2663913e-02
1.0070656e-01
1.3392410e-01
1.4428324e-01
1.2885637e-01
9.1983558e-02
4.2604513e-02
-8.6234064e-03
-5.0043177e-02
-6.9958603e-02
-6.3581112e-02
-4.1032624e-02
-2.1912456e-02
-3.6315067e-02
-8.5025117e-02
-1.2066384e-01
-1.2235982e-01
-1.0349515e-01
-7.5427398e-02
-4.9520588e-02
-3.3332796e-02
-2.6441664e-02
-1.6758275e-02
1.0784400e-02
5.5697897e-02
1.0193851e-01
1.3043723e-01
1.2643739e-01
8.9043980e-02
3.5269371e-02
-1.3072312e-02
-4.0180853e-02
-4.1447637e-02
-2.4128579e-02
3.2908258e-04
2.1906600e-02
3.4896000e-02
3.8480945e-02
3.2550480e-02
1.7236037e-02
-5.2710313e-03
-3.0799069e-02
-5.2179476e-02
-6.1857453e-02
-5.5945392e-02
-3.4588500e-02
-2.0427824e-03
3.1541979e-02
5.3842489e-02
5.7007967e-02
4.0588680e-02
1.3047125e-02
-1.2098837e-02
-2.4014316e-02
-1.9804717e-02
-3.3619775e-03
1.7327693e-02
3.2774844e-02
3.6382055e-02
2.5432945e-02
2.0955609e-03
-2.5677545e-02
-4.7899007e-02
-5.6790305e-02
-4.8526622e-02
-2.3972680e-02
1.2652424e-02
5.1526371e-02
7.7305919e-02
7.7186211e-02
4.7885251e-02
3.8090255e-04
-4.6091797e-02
-7.4990408e-02
-8.0557592e-02
-6.8837821e-02
-4.8476468e-02
-2.6122232e-02
-2.2782042e-03
2.7281163e-02
6.1442041e-02
9.0649324e-02
9.7548573e-02
6.4477254e-02
-9.5953492e-03
-9.8717501e-02
-1.5988116e-01
-1.5927644e-01
-9.3871793e-02
1.2128715e-02
1.2874558e-01
2.2574134e-01
2.6828634e-01
2.2459973e-01
8.4234609e-02
-1.1380429e-01
-2.9106501e-01
-3.7769628e-01
-3.4362386e-01
-2.0484655e-01
7.6338647e-05
2.2448998e-01
4.0902046e-01
4.9106694e-01
4.3300084e-01
2.5405412e-01
1.8775032e-02
-1.9892699e-01
-3.4057771e-01
-3.8121030e-01
-3.3212718e-01
-2.2673588e-01
-1.0352557e-01
4.8962281e-03
7.9439561e-02
1.1593074e-01
1.1744548e-01
8.9630044e-02
4.3600101e-02
-4.5810967e-03
-3.7225515e-02
-3.9842726e-02
-7.6867892e-03
4.8176854e-02
1.0121465e-01
1.2110542e-01
9.2471058e-02
2.6052133e-02
-4.9667609e-02
-1.0644894e-01
-1.2846351e-01
-1.1270805e-01
-6.5455153e-02
-3.7004202e-03
4.7067616e-02
6.4805898e-02
4.4257585e-02
2.9940258e-03
-3.1250340e-02
-3.9843895e-02
-1.8690343e-02
2.4199390e-02
7.3296517e-02
1.0814105e-01
1.0790994e-01
6.4898829e-02
-3.8369658e-03
-6.3458053e-02
-8.6566219e-02
-6.8865599e-02
-2.5564222e-02
1.9459349e-02
4.1349844e-02
2.2702192e-02
-3.0614047e-02
-9.0236488e-02
-1.2556542e-01
-1.1948592e-01
-7.2476558e-02
4.0889502e-04
7.7211537e-02
1.3521574e-01
1.5850318e-01
1.4825900e-01
1.1758361e-01
7.9737032e-02
4.1386648e-02
9.7983607e-04
-4.3315196e-02
-8.1061563e-02
-9.4257085e-02
-7.6307381e-02
-3.5857796e-02
-2.6531051e-03
1.0175519e-02
3.8391975e-02
9.4851169e-02
1.3204710e-01
9.6742299e-02
-1.6907309e-02
-1.6541502e-01
-2.8395395e-01
-3.2006695e-01
-2.6598134e-01
-1.5217746e-01
-1.9597488e-02
1.0310412e-01
2.0356608e-01
2.6977536e-01
2.8936380e-01
2.4971815e-01
1.4756127e-01
8.8984302e-03
-1.2051694e-01
-1.9954674e-01
-2.1124799e-01
-1.6573981e-01
-8.9839118e-02
-1.2262870e-02
4.7817084e-02
8.3248607e-02
9.7966056e-02
9.8510708e-02
8.5027978e-02
5.2476245e-02
-5.7458597e-04
-6.2784179e-02
-1.1107941e-01
-1.2547585e-01
-1.0007703e-01
-4.0397690e-02
3.8673644e-02
1.1573632e-01
1.6698926e-01
1.6982044e-01
1.1766499e-01
3.0016981e-02
-5.6597865e-02
-1.0886520e-01
-1.1347452e-01
-7.9358373e-02
-2.8517173e-02
1.5591349e-02
3.5235920e-02
2.3039019e-02
-1.3811004e-02
-5.4767909e-02
-7.7432663e-02
-6.9715284e-02
-3.3430257e-02
1.9790077e-02
7.2611246e-02
1.0480726e-01
1.0116948e-01
6.0041090e-02
-5.2484398e-03
-7.4027765e-02
-1.2494433e-01
-1.4233407e-01
-1.2356349e-01
-7.5894211e-02
-1.4062235e-02
4.3874589e-02
8.5346550e-02
1.0887073e-01
1.2488970e-01
1.4363892e-01
1.6698085e-01
1.8948214e-01
1.9606998e-01
1.6266205e-01
7.5167098e-02
-5.1970515e-02
-1.8051216e-01
-2.6878529e-01
-2.9307746e-01
-2.5447615e-01
-1.7309999e-01
-7.3296577e-02
2.4745858e-02
9.9648393e-02
1.2866270e-01
1.0408211e-01
4.2161906e-02
-3.1304754e-02
-9.1556052e-02
-1.2262325e-01
-1.2631106e-01
-1.1648197e-01
-1.0520335e-01
-9.5605857e-02
-8.3466084e-02
-5.7280920e-02
1.8681498e-03
1.1577267e-01
2.9478350e-01
5.1689272e-01
7.0316130e-01
7.2725382e-01
5.0796351e-01
9.4942688e-02
-3.4768718e-01
-6.5162829e-01
-7.5250219e-01
-6.8414747e-01
-5.1215649e-01
-2.9528329e-01
-7.8975571e-02
1.0318529e-01
2.3631370e-01
3.2430494e-01
3.7207401e-01
3.6729273e-01
2.8220676e-01
9.7488401e-02
-1.4746898e-01
-3.5063447e-01
-4.2484345e-01
-3.4676277e-01
-1.4388078e-01
1.3644395e-01
4.1819342e-01
5.8652272e-01
5.5302237e-01
3.2809680e-01
2.5506161e-02
-2.1940459e-01
-3.3669127e-01
-3.2912135e-01
-2.4228012e-01
-1.3501600e-01
-5.2072220e-02
-1.4868078e-02
-2.1884397e-02
-5.4587766e-02
-8.9729417e-02
-1.0726751e-01
-9.4547300e-02
-4.7379361e-02
2.2125105e-02
9.0384385e-02
1.3812793e-01
1.5766973e-01
1.5754467e-01
1.5285687e-01
1.5062787e-01
1.4366226e-01
1.1610328e-01
6.0423292e-02
-7.6452409e-03
-6.0494942e-02
-8.7772774e-02
-1.0231224e-01
-1.3734871e-01
-1.9418800e-01
-2.1863857e-01
-1.8709600e-01
-1.1938276e-01
-3.7460268e-02
3.5582160e-02
7.6961257e-02
6.9554918e-02
1.8503916e-02
-4.9200796e-02
-1.0957885e-01
-1.4134521e-01
-1.2006471e-01
-3.5605080e-02
1.0053060e-01
2.6036533e-01
4.0503069e-01
4.8756238e-01
4.6067121e-01
3.0472571e-01
6.0986704e-02
-1.8053553e-01
-3.4515625e-01
-4.0466118e-01
-3.6466364e-01
-2.6313147e-01
-1.5382303e-01
-7.3562291e-02
-2.6498059e-02
5.9282124e-03
3.8891318e-02
7.6084743e-02
1.1109331e-01
1.3271945e-01
1.3579355e-01
1.2045826e-01
8.8123648e-02
4.3076293e-02
-5.8174042e-03
-4.8862328e-02
-7.7234386e-02
-8.6293294e-02
-8.0587657e-02
-7.0797332e-02
-6.7334120e-02
-7.5115366e-02
-8.6735014e-02
-8.2796153e-02
-4.6544287e-02
2.2679366e-02
1.0849135e-01
1.8172435e-01
2.0984983e-01
1.7736591e-01
9.8179547e-02
8.5498743e-03
-5.3986273e-02
-6.9863113e-02
-4.2804573e-02
5.7920392e-03
4.7550650e-02
5.9670672e-02
3.5534913e-02
-1.4041581e-02
-6.7883569e-02
-1.0787172e-01
-1.2844073e-01
-1.3339248e-01
-1.2650857e-01
-1.0894181e-01
-7.9699589e-02
-3.5625337e-02
2.4604924e-02
9.3671562e-02
1.5297110e-01
1.7865570e-01
1.5617774e-01
9.3955240e-02
1.8037628e-02
-4.3790007e-02
-7.8348506e-02
-8.8120874e-02
-8.1649020e-02
-6.8011155e-02
-4.5999371e-02
-7.4907874e-03
4.8934512e-02
1.1734082e-01
1.7905582e-01
2.0169870e-01
1.5708664e-01
4.3560629e-02
-1.0143133e-01
-2.2354271e-01
-2.8693410e-01
-2.8249940e-01
-2.1623955e-01
-1.0353447e-01
2.9507371e-02
1.4845577e-01
2.1808287e-01
2.1544041e-01
1.4781490e-01
5.4052361e-02
-2.3034967e-02
-5.6994110e-02
-4.4360602e-02
-3.4795301e-03
3.7208932e-02
5.4369159e-02
4.4432768e-02
2.2460241e-02
6.0595028e-03
3.7558450e-03
9.9865101e-03
7.4446101e-03
-1.8197837e-02
-6.6885611e-02
-1.2347790e-01
-1.6375654e-01
-1.6761309e-01
-1.3284183e-01
-7.2895505e-02
-4.5232575e-03
6.1233680e-02
1.1916280e-01
1.6430516e-01
1.8866427e-01
1.7940018e-01
1.3019383e-01
5.1829208e-02
-3.2385861e-02
-9.5805639e-02
-1.1957336e-01
-1.0145558e-01
-5.3332870e-02
7.0465324e-03
5.9096089e-02
8.3508301e-02
7.0920196e-02
2.6819422e-02
-3.4613982e-02
-9.7650696e-02
-1.4874204e-01
-1.7825603e-01
-1.7933513e-01
-1.4713758e-01
-7.7571510e-02
3.1178591e-02
1.6931440e-01
3.0415051e-01
3.8323591e-01
3.6532967e-01
2.5741280e-01
1.0985569e-01
-1.6592279e-02
-8.6722734e-02
-1.0749723e-01
-1.0824896e-01
-1.3295684e-01
-2.0185977e-01
-2.7394917e-01
-3.0720055e-01
-2.8824560e-01
-2.1242387e-01
-9.5339155e-02
2.6781328e-02
1.1059750e-01
1.3322567e-01
1.1263871e-01
8.3448871e-02
7.2195074e-02
8.3884747e-02
9.7812034e-02
9.4589501e-02
7.4554737e-02
4.7863879e-02
2.6054763e-02
1.2436673e-02
-2.7796281e-03
-2.9893706e-02
-6.4370999e-02
-8.8001678e-02
-8.2608964e-02
-4.0433870e-02
2.8424857e-02
9.8014975e-02
1.3687385e-01
1.2426604e-01
6.5099801e-02
-1.5144701e-02
-8.5577396e-02
-1.2324049e-01
-1.2076670e-01
-8.4365302e-02
-2.7998993e-02
3.1430478e-02
7.4656073e-02
8.5307197e-02
6.1042043e-02
1.9223455e-02
-1.2058383e-02
-1.4588450e-02
1.1634829e-02
5.0438215e-02
7.6779110e-02
6.9980750e-02
2.3518100e-02
-4.6838985e-02
-1.1164466e-01
-1.4917848e-01
-1.4962579e-01
-1.1071001e-01
-3.6625867e-02
5.9712899e-02
1.5113527e-01
2.0286240e-01
1.8313631e-01
8.2416227e-02
-6.7472758e-02
-2.0571169e-01
-2.7335224e-01
-2.4497606e-01
-1.3609234e-01
9.7884793e-03
1.3181171e-01
1.8213562e-01
1.5960097e-01
1.0080148e-01
4.5246621e-02
1.2158517e-02
2.9694639e-03
9.5698990e-03
1.5795358e-02
1.2182927e-03
-4.5049229e-02
-1.1059210e-01
-1.6525217e-01
-1.7681882e-01
-1.2788666e-01
-1.5516711e-02
1.5829896e-01
3.7379818e-01
5.5685853e-01
5.8765807e-01
3.9481716e-01
3.2495383e-02
-3.4102073e-01
-5.7436704e-01
-6.1949875e-01
-5.1767952e-01
-3.3792819e-01
-1.3831128e-01
4.2158327e-02
1.7629839e-01
2.4919364e-01
2.6112141e-01
2.2531779e-01
1.6182994e-01
9.1631927e-02
2.7917380e-02
-2.5281689e-02
-6.3914140e-02
-8.2129912e-02
-7.8738628e-02
-6.1190200e-02
-4.3666715e-02
-4.3967159e-02
-6.8340722e-02
-1.0174343e-01
-1.2098524e-01
-1.0698957e-01
-4.9468413e-02
4.7930707e-02
1.6872924e-01
2.8297884e-01
3.4369910e-01
3.0643094e-01
1.6322554e-01
-3.9422793e-02
-2.2371983e-01
-3.2594046e-01
-3.2339721e-01
-2.3199393e-01
-8.5445462e-02
7.7219478e-02
2.1318830e-01
2.8199856e-01
2.6047396e-01
1.5815331e-01
1.4320077e-02
-1.2155403e-01
-2.1084770e-01
-2.3882728e-01
-2.1190661e-01
-1.4586635e-01
-5.4933424e-02
4.7126408e-02
1.4248984e-01
2.0685610e-01
2.1309546e-01
1.5241572e-01
4.7736238e-02
-5.7885749e-02
-1.2591719e-01
-1.3828486e-01
-1.0115848e-01
-3.7273133e-02
2.9263470e-02
7.9705098e-02
1.0509697e-01
1.0964257e-01
1.0575624e-01
1.0057072e-01
8.8262219e-02
6.1776977e-02
2.3696194e-02
-2.1796849e-02
-7.5340568e-02
-1.4659591e-01
-2.2855465e-01
-2.7790779e-01
-2.7000976e-01
-2.1363847e-01
-1.2092800e-01
-1.5412503e-02
7.0661109e-02
1.1555878e-01
1.2266362e-01
1.1628006e-01
1.1502089e-01
1.2189422e-01
1.2770798e-01
1.1866763e-01
9.0701589e-02
4.9538235e-02
1.9984379e-03
-4.2856961e-02
-7.4611473e-02
-8.7590253e-02
-8.0001560e-02
-5.4158595e-02
-1.8063576e-02
1.4983401e-02
3.2063994e-02
2.7444591e-02
7.0406992e-03
-1.2920289e-02
-2.1421786e-02
-2.0379110e-02
-1.6003811e-02
-1.5232575e-02
-2.0875118e-02
-2.4480590e-02
-1.5678881e-02
9.6901900e-03
4.9292527e-02
9.4117530e-02
1.3112854e-01
1.4458065e-01
1.2013355e-01
5.7173633e-02
-2.6822475e-02
-1.0494104e-01
-1.5295157e-01
-1.6310607e-01
-1.4560763e-01
-1.1845188e-01
-9.3539828e-02
-7.2256004e-02
-4.9843357e-02
-1.6116374e-02
3.6855494e-02
9.9425122e-02
1.4601910e-01
1.5337834e-01
1.1818097e-01
6.5331575e-02
3.0129933e-02
3.3731927e-02
6.6823130e-02
9.4041705e-02
7.7808313e-02
1.5700566e-03
-1.0711760e-01
-1.8954468e-01
-2.0486329e-01
-1.4952338e-01
-4.3504788e-02
7.4118121e-02
1.5223648e-01
1.5190517e-01
7.4180706e-02
-3.7182970e-02
-1.2912083e-01
-1.6740480e-01
-1.4422883e-01
-7.3566944e-02
2.4725144e-02
1.2775676e-01
2.0256832e-01
2.1934014e-01
1.7217648e-01
8.2343851e-02
-1.6940008e-02
-9.5593573e-02
-1.3807779e-01
-1.4462566e-01
-1.2329807e-01
-9.1847848e-02
-6.9192996e-02
-5.5206823e-02
-3.1305113e-02
2.0268985e-02
9.9766368e-02
1.8307857e-01
2.3064242e-01
2.0263923e-01
8.3558836e-02
-9.3487845e-02
-2.5694707e-01
-3.3696709e-01
-3.0592038e-01
-1.8074154e-01
-3.1270004e-03
1.6373692e-01
2.5295370e-01
2.3652783e-01
1.4344909e-01
3.5244840e-02
-3.7754905e-02
-5.9120852e-02
-4.0001712e-02
-7.4097470e-03
4.6646936e-03
-2.7371608e-02
-9.3400431e-02
-1.5274803e-01
-1.6563188e-01
-1.1710124e-01
-9.6288218e-03
1.5137072e-01
3.5016725e-01
5.2338297e-01
5.6042665e-01
3.9003969e-01
5.3770837e-02
-3.0584572e-01
-5.4185981e-01
-5.9902702e-01
-5.0798987e-01
-3.3068639e-01
-1.2802363e-01
5.1515378e-02
1.7591073e-01
2.3691557e-01
2.4855524e-01
2.2947090e-01
1.8739954e-01
1.1827898e-01
9.0516738e-03
-1.3502878e-01
-2.6264501e-01
-3.0939711e-01
-2.4245875e-01
-7.2028592e-02
1.6143002e-01
3.8394439e-01
4.9399285e-01
4.3307132e-01
2.3577975e-01
3.9161651e-03
-1.6243915e-01
-2.2722871e-01
-2.1742143e-01
-1.7135861e-01
-1.1288645e-01
-5.9858326e-02
-2.9957209e-02
-4.7622673e-02
-1.0237594e-01
-1.3496623e-01
-1.1894628e-01
-6.9157565e-02
-1.6783389e-03
6.1424373e-02
9.3756234e-02
7.9539588e-02
2.8488073e-02
-2.8252122e-02
-6.2940711e-02
-6.3689732e-02
-3.1030174e-02
2.3488062e-02
8.2195500e-02
1.2732461e-01
1.4205394e-01
1.1664324e-01
5.7318842e-02
-1.4019363e-02
-7.0951002e-02
-9.7143686e-02
-9.3105701e-02
-7.0458109e-02
-4.1539476e-02
-1.5160342e-02
3.6298134e-03
1.5090919e-02
2.2311608e-02
2.0545996e-02
-3.3403344e-03
-4.6957668e-02
-7.9589482e-02
-6.4427197e-02
1.2501962e-02
1.3565213e-01
2.6904656e-01
3.6226130e-01
3.6077421e-01
2.3516524e-01
2.0426385e-02
-1.9429875e-01
-3.3566557e-01
-3.7656034e-01
-3.2091790e-01
-2.0679325e-01
-9.3067949e-02
-2.2269913e-02
2.3857436e-03
1.1336479e-02
3.5500795e-02
8.5051165e-02
1.4758927e-01
1.9676413e-01
2.1009188e-01
1.7679973e-01
9.8608657e-02
-7.0871712e-03
-1.1225343e-01
-1.8752674e-01
-2.1245884e-01
-1.8707970e-01
-1.2607139e-01
-4.8719589e-02
2.5875361e-02
8.0189424e-02
1.0140402e-01
9.0636415e-02
6.1184743e-02
3.1616721e-02
2.0631761e-02
3.6828192e-02
6.9176836e-02
9.5433730e-02
9.4935965e-02
5.5672329e-02
-1.3503984e-02
-8.4950507e-02
-1.3362869e-01
-1.4603461e-01
-1.2040135e-01
-7.1178553e-02
-1.9712218e-02
1.7895568e-02
3.7600007e-02
4.6065835e-02
4.9776483e-02
4.8138945e-02
3.5184160e-02
1.1491849e-02
-1.0476896e-02
-1.5162266e-02
3.7122802e-03
3.9062337e-02
7.3707283e-02
8.5115933e-02
5.9078425e-02
1.5980467e-03
-6.7046501e-02
-1.2449550e-01
-1.5619901e-01
-1.6005350e-01
-1.4179193e-01
-1.0763619e-01
-5.5795759e-02
1.8375512e-02
1.1119826e-01
2.1211261e-01
2.9699395e-01
3.2556119e-01
2.6425253e-01
1.1465557e-01
-7.3733465e-02
-2.2958904e-01
-3.0732629e-01
-2.9989987e-01
-2.2061095e-01
-9.3034817e-02
4.9136222e-02
1.6252414e-01
2.0673508e-01
1.6690272e-01
6.8375660e-02
-3.5055801e-02
-9.7984764e-02
-1.0277211e-01
-5.9444526e-02
1.1116899e-03
4.4750480e-02
5.2194320e-02
2.7620815e-02
-7.5190756e-03
-3.0995450e-02
-3.3830608e-02
-2.0680208e-02
-4.2193054e-03
5.7395175e-03
7.4271645e-03
2.0913007e-03
-5.2573380e-03
-9.1603033e-03
-9.8936747e-03
-7.2340135e-03
1.6982861e-03
1.3919495e-02
2.1672854e-02
1.9475379e-02
8.3904663e-03
-2.8870009e-03
-5.3913736e-04
2.5397961e-02
7.4252659e-02
1.3323339e-01
1.7350178e-01
1.6438199e-01
1.0454478e-01
2.5172920e-02
-4.2961206e-02
-9.4530193e-02
-1.5431028e-01
-2.2942213e-01
-2.7919603e-01
-2.7817899e-01
-2.3039430e-01
-1.4168202e-01
-2.8729578e-02
8.2341644e-02
1.6438872e-01
1.9902216e-01
1.8478934e-01
1.2994993e-01
5.0740630e-02
-2.6131438e-02
-7.3975587e-02
-8.0391647e-02
-4.9050529e-02
7.7907999e-03
7.1047146e-02
1.1817602e-01
1.2975596e-01
9.9194515e-02
3.9707954e-02
-2.3368195e-02
-6.3081718e-02
-6.6691866e-02
-4.2517919e-02
-9.4070729e-03
1.1023784e-02
5.2824306e-03
-2.3485870e-02
-6.0753388e-02
-8.8468213e-02
-9.0881117e-02
-6.4213532e-02
-2.0075102e-02
2.4500557e-02
5.7244667e-02
6.9681060e-02
5.8318559e-02
2.8900576e-02
-8.9215668e-03
-4.3579526e-02
-6.2908056e-02
-5.8863036e-02
-2.9308677e-02
2.2724677e-02
9.1255449e-02
1.6618136e-01
2.2590481e-01
2.3709769e-01
1.7159230e-01
3.1130897e-02
-1.3867330e-01
-2.7104046e-01
-3.2572441e-01
-3.0147390e-01
-2.1113173e-01
-7.6347455e-02
6.9140296e-02
1.8250098e-01
2.2691951e-01
1.9959853e-01
1.3229438e-01
6.6314519e-02
2.5616611e-02
1.2641297e-02
1.5972062e-02
1.4872516e-02
-6.7538221e-03
-5.0868635e-02
-1.0593407e-01
-1.4854045e-01
-1.5390173e-01
-1.1093055e-01
-2.7223423e-02
7.0614269e-02
1.4475745e-01
1.5520816e-01
7.9186469e-02
-6.4293572e-02
-2.1420919e-01
-2.9566282e-01
-2.6594919e-01
-1.3040784e-01
7.3832024e-02
2.8193530e-01
4.1488714e-01
4.2024758e-01
3.0076481e-01
1.1088526e-01
-7.7344239e-02
-2.0783670e-01
-2.5611009e-01
-2.3245485e-01
-1.6568917e-01
-8.5200866e-02
-1.1387679e-02
4.2384898e-02
6.8602551e-02
6.8360785e-02
4.7709037e-02
1.7117239e-02
-1.2094661e-02
-3.3666844e-02
-4.5139838e-02
-4.5111794e-02
-3.3557358e-02
-1.2430341e-02
1.2264871e-02
3.0241512e-02
3.1698795e-02
1.3928302e-02
-1.1849264e-02
-2.5549424e-02
-1.2925685e-02
2.7396374e-02
8.6092313e-02
1.4464403e-01
1.7479508e-01
1.4383711e-01
3.3069161e-02
-1.3189722e-01
-2.8537078e-01
-3.6278906e-01
-3.3177207e-01
-2.0388273e-01
-1.2873837e-02
2.0504089e-01
4.0620209e-01
5.3614837e-01
5.4003817e-01
3.9557636e-01
1.3785503e-01
-1.4642954e-01
-3.6263206e-01
-4.5751889e-01
-4.3138632e-01
-3.2329359e-01
-1.8686953e-01
-7.0855446e-02
-2.1040442e-03
1.9415880e-02
1.1333862e-02
2.3716919e-03
1.8938432e-02
7.0087303e-02
1.5102469e-01
2.4693444e-01
3.2492581e-01
3.4366931e-01
2.7448726e-01
1.2257036e-01
-5.6585330e-02
-1.8886779e-01
-2.3734922e-01
-2.1131213e-01
-1.4136932e-01
-6.0160869e-02
2.7191981e-03
-2.4977160e-04
-7.5319317e-02
-1.4465032e-01
-1.5895771e-01
-1.2488795e-01
-5.4511544e-02
3.1518665e-02
1.0546531e-01
1.3885844e-01
1.1749890e-01
5.7769913e-02
-6.2448821e-03
-4.3928460e-02
-4.0342642e-02
-2.5367298e-03
4.4313299e-02
6.6821817e-02
4.3677350e-02
-1.6742350e-02
-8.2228061e-02
-1.1606779e-01
-9.5052441e-02
-2.2374519e-02
7.4663835e-02
1.5468178e-01
1.7942019e-01
1.3782686e-01
5.1159037e-02
-4.1024439e-02
-1.0310087e-01
-1.1713150e-01
-8.4586474e-02
-2.3736236e-02
3.9325537e-02
7.7251508e-02
7.0079840e-02
1.9728777e-02
-4.8210848e-02
-9.8729633e-02
-1.0683953e-01
-6.8596575e-02
4.1069264e-03
8.8018311e-02
1.4896853e-01
1.5158211e-01
8.3986226e-02
-2.7386561e-02
-1.3802576e-01
-2.0922045e-01
-2.1979229e-01
-1.7397714e-01
-9.3055882e-02
-3.9152880e-03
7.1216942e-02
1.2454049e-01
1.5916740e-01
1.8300245e-01
1.9880884e-01
1.9622661e-01
1.5585757e-01
6.3111069e-02
-7.8581738e-02
-2.3174868e-01
-3.3203225e-01
-3.3354999e-01
-2.2669463e-01
-2.7871880e-02
2.2297689e-01
4.3809653e-01
4.9952911e-01
3.6026476e-01
9.1368815e-02
-1.7196113e-01
-3.2136937e-01
-3.3097619e-01
-2.4039135e-01
-1.1594770e-01
-1.7233916e-02
2.9158740e-02
2.8391201e-02
3.2582951e-03
-2.1642317e-02
-3.4940825e-02
-3.8466508e-02
-3.5713286e-02
-2.5436598e-02
-1.2027242e-02
-5.9628994e-03
-5.7392108e-03
5.2837674e-03
4.2772586e-02
1.0847430e-01
1.8694251e-01
2.5031381e-01
2.6742872e-01
2.1354137e-01
8.3624194e-02
-8.4297659e-02
-2.1388661e-01
-2.4818233e-01
-1.8250216e-01
-5.5096195e-02
6.0423657e-02
9.1899850e-02
2.5675334e-02
-8.6598190e-02
-1.7360759e-01
-1.9547318e-01
-1.5166696e-01
-6.1052519e-02
4.1388495e-02
1.1794986e-01
1.5295121e-01
1.5548404e-01
1.4165454e-01
1.1665121e-01
7.3650887e-02
4.8332578e-03
-8.5197629e-02
-1.7485136e-01
-2.3299175e-01
-2.3318198e-01
-1.7073085e-01
-6.2231774e-02
6.7955103e-02
1.9439522e-01
2.8439308e-01
3.0313737e-01
2.3559607e-01
9.8371610e-02
-5.6347735e-02
-1.6987032e-01
-2.1212658e-01
-1.8359018e-01
-1.0749536e-01
-1.6271903e-02
5.9424411e-02
9.7180943e-02
8.8680149e-02
4.3402891e-02
-1.4123144e-02
-5.6686357e-02
-6.7132700e-02
-4.6043109e-02
-1.1496526e-02
1.4565229e-02
1.7757412e-02
-1.6573288e-03
-2.4123425e-02
-2.6335345e-02
1.3542270e-03
5.1710111e-02
1.0489366e-01
1.3949676e-01
1.4359436e-01
1.1818815e-01
7.9268859e-02
4.6365257e-02
2.2365256e-02
-7.9172402e-03
-7.7223250e-02
-1.8398622e-01
-2.6527783e-01
-2.8424427e-01
-2.4627288e-01
-1.5876847e-01
-4.3933761e-02
6.2218886e-02
1.2819169e-01
1.4338671e-01
1.2434372e-01
9.4998397e-02
7.0669651e-02
5.4150466e-02
3.6037115e-02
7.4377958e-03
-3.0700967e-02
-6.6286813e-02
-8.2615951e-02
-7.1467645e-02
-3.5506721e-02
1.7049589e-02
7.2898524e-02
1.1546184e-01
1.2925160e-01
1.0542409e-01
4.9414420e-02
-2.0152609e-02
-8.0585406e-02
-1.1480277e-01
-1.1652763e-01
-8.8984921e-02
-4.1402880e-02
1.6157742e-02
7.2568284e-02
1.1404562e-01
1.2792347e-01
1.0636759e-01
5.2422735e-02
-1.6870258e-02
-7.7016705e-02
-1.0790549e-01
-1.0300003e-01
-7.0205624e-02
-2.6027314e-02
1.4546004e-02
4.0804516e-02
4.5426776e-02
2.9808611e-02
3.1373395e-03
-2.0675505e-02
-2.4991503e-02
-1.1446387e-03
4.4567574e-02
9.7097722e-02
1.3329922e-01
1.1962056e-01
3.4195974e-02
-1.0272168e-01
-2.3694475e-01
-3.1194474e-01
-2.9658133e-01
-2.0222374e-01
-6.3724828e-02
8.4782912e-02
2.2050873e-01
3.2647430e-01
3.7920363e-01
3.5495128e-01
2.3833814e-01
4.8529978e-02
-1.5165316e-01
-2.9242501e-01
-3.3543060e-01
-2.8582182e-01
-1.7530936e-01
-4.2938972e-02
7.7092062e-02
1.5961021e-01
1.8951497e-01
1.6960214e-01
1.1697774e-01
5.0650952e-02
-1.3360053e-02
-6.5413761e-02
-1.0241372e-01
-1.2315194e-01
-1.2692753e-01
-1.1235141e-01
-7.7618407e-02
-2.7592163e-02
2.5332587e-02
6.5868962e-02
8.3363053e-02
8.2484878e-02
7.7450372e-02
7.9269886e-02
9.0568986e-02
1.0094718e-01
9.0432479e-02
4.1240766e-02
-5.5573257e-02
-1.8146043e-01
-2.8322435e-01
-3.0720691e-01
-2.2799352e-01
-5.3084617e-02
1.8490851e-01
4.0997413e-01
5.0757599e-01
4.1094248e-01
1.6067096e-01
-1.1865495e-01
-3.0518394e-01
-3.5245647e-01
-2.8147943e-01
-1.4915995e-01
-1.9201919e-02
6.6217657e-02
9.1570956e-02
6.3632708e-02
4.5796270e-03
-6.1208053e-02
-1.1729873e-01
-1.5276497e-01
-1.5718447e-01
-1.3065856e-01
-8.2695257e-02
-1.6377418e-02
7.2680174e-02
1.8497039e-01
3.0823291e-01
4.0764662e-01
4.3055429e-01
3.4336840e-01
1.5796659e-01
-7.2023025e-02
-2.6636908e-01
-3.5710405e-01
-3.2758460e-01
-2.0678694e-01
-4.6958068e-02
8.1053816e-02
1.1286831e-01
4.0672762e-02
-7.8932122e-02
-1.6891757e-01
-1.8452086e-01
-1.2729592e-01
-2.3030046e-02
9.5010666e-02
1.9476257e-01
2.4851656e-01
2.4382949e-01
1.9084157e-01
1.0960238e-01
2.6868177e-02
-3.3043713e-02
-6.8982971e-02
-9.7982874e-02
-1.4888276e-01
-2.2577870e-01
-2.7908707e-01
-2.7047578e-01
-2.0136942e-01
-8.5005656e-02
5.0531561e-02
1.6558645e-01
2.2553665e-01
2.1785751e-01
1.6011425e-01
8.0866567e-02
4.5646281e-03
-5.1840218e-02
-8.1783441e-02
-8.5671623e-02
-6.9426252e-02
-4.0221261e-02
-4.2469831e-03
3.0814835e-02
5.9776046e-02
8.2840142e-02
9.9359802e-02
1.0283297e-01
8.2328700e-02
3.1081228e-02
-4.1359315e-02
-1.1020448e-01
-1.4956006e-01
-1.4769373e-01
-1.1289613e-01
-6.4272893e-02
-2.2338425e-02
9.0538141e-04
1.3367072e-02
3.1370214e-02
6.5837763e-02
1.2031703e-01
1.8099733e-01
2.1510223e-01
1.8594130e-01
7.0695696e-02
-1.0419131e-01
-2.5762743e-01
-3.1638377e-01
-2.5657009e-01
-9.5660713e-02
1.2497075e-01
3.2734571e-01
4.0930790e-01
3.2838498e-01
1.3786948e-01
-5.9596446e-02
-1.8239125e-01
-2.1404383e-01
-1.9139396e-01
-1.6304421e-01
-1.5163517e-01
-1.4542481e-01
-1.2508200e-01
-8.4905420e-02
-2.8118766e-02
3.5498492e-02
8.7854416e-02
1.0657871e-01
8.0325069e-02
2.1746414e-02
-4.1158223e-02
-7.5329428e-02
-5.8050687e-02
9.2318214e-03
1.0901601e-01
2.1481618e-01
2.9444458e-01
3.1455805e-01
2.4803173e-01
9.3181163e-02
-1.0027667e-01
-2.4633494e-01
-2.8716204e-01
-2.2016753e-01
-8.2569999e-02
5.4587885e-02
1.1727340e-01
8.1547868e-02
-1.7284615e-02
-1.1762645e-01
-1.7671832e-01
-1.8696052e-01
-1.6118685e-01
-1.1877460e-01
-6.8833884e-02
-7.6228003e-03
7.3303781e-02
1.7500931e-01
2.7307435e-01
3.1264831e-01
2.4176772e-01
6.7766113e-02
-1.3792313e-01
-2.8677264e-01
-3.2565106e-01
-2.5957800e-01
-1.2637571e-01
3.1324773e-02
1.7956720e-01
2.8905976e-01
3.3034634e-01
2.8609884e-01
1.6091988e-01
-5.3302406e-03
-1.5165655e-01
-2.3142766e-01
-2.2749292e-01
-1.5471774e-01
-5.3463456e-02
2.4989741e-02
3.9806092e-02
-4.1514088e-03
-5.5085587e-02
-6.4631275e-02
-1.2521467e-02
9.8011159e-02
2.3817143e-01
3.3579947e-01
3.0538439e-01
1.3046727e-01
-1.1962569e-01
-3.3330673e-01
-4.2559535e-01
-3.8910694e-01
-2.7003522e-01
-1.2306786e-01
1.6863710e-02
1.3503201e-01
2.1871932e-01
2.6012353e-01
2.5963350e-01
2.2017386e-01
1.4233004e-01
2.6565603e-02
-1.1777028e-01
-2.6025240e-01
-3.5085199e-01
-3.5154463e-01
-2.5610143e-01
-8.6159421e-02
1.2612049e-01
3.4147322e-01
5.0758103e-01
5.7305466e-01
5.0977043e-01
3.2949470e-01
7.8733057e-02
-1.7300953e-01
-3.5360741e-01
-4.1821381e-01
-3.7314961e-01
-2.6851590e-01
-1.6151526e-01
-1.0931743e-01
-1.2190250e-01
-1.3574582e-01
-1.0898999e-01
-4.7510051e-02
3.7665136e-02
1.2854585e-01
2.0095475e-01
2.3442199e-01
2.1901801e-01
1.6147948e-01
7.7323952e-02
-1.7964680e-02
-1.0844003e-01
-1.8027466e-01
-2.2317074e-01
-2.2824457e-01
-1.8892376e-01
-1.0932661e-01
-3.7157641e-03
1.1309980e-01
2.2752561e-01
3.1901349e-01
3.6134915e-01
3.3403709e-01
2.2652060e-01
5.8986881e-02
-1.1438965e-01
-2.3935004e-01
-2.8566502e-01
-2.5701063e-01
-1.8467918e-01
-1.0331563e-01
-3.0644152e-02
3.3481623e-02
9.3134544e-02
1.4113684e-01
1.5936043e-01
1.2441909e-01
2.6087459e-02
-1.0967586e-01
-2.2861274e-01
-2.7639212e-01
-2.3079123e-01
-1.0745361e-01
5.2981545e-02
1.8691242e-01
2.3362371e-01
1.8168091e-01
7.7763257e-02
-1.2566230e-02
-4.9932983e-02
-2.9951407e-02
2.9397802e-02
9.5705418e-02
1.2888654e-01
9.8493190e-02
6.8972461e-03
-1.0566178e-01
-1.8214098e-01
-1.8511995e-01
-1.1232390e-01
2.2913029e-02
2.0389089e-01
3.7775405e-01
4.4625641e-01
3.3385085e-01
6.0404707e-02
-2.5242161e-01
-4.6577917e-01
-5.1863659e-01
-4.3277403e-01
-2.6601041e-01
-7.2866254e-02
1.0988800e-01
2.4839458e-01
3.0373900e-01
2.5588605e-01
1.3135177e-01
-8.1891219e-03
-1.0373188e-01
-1.2618252e-01
-8.3619548e-02
-8.6930278e-03
5.7088984e-02
8.0912103e-02
5.3465174e-02
-1.3098451e-02
-9.2135599e-02
-1.5228247e-01
-1.7189847e-01
-1.4557426e-01
-7.9899531e-02
1.4276772e-02
1.2200995e-01
2.2255883e-01
2.9039698e-01
2.9595384e-01
2.2233271e-01
8.5802604e-02
-6.8966629e-02
-1.9679465e-01
-2.7041154e-01
-2.8316989e-01
-2.4503160e-01
-1.6823606e-01
-6.4109444e-02
5.4649323e-02
1.7890105e-01
2.9408027e-01
3.6279964e-01
3.3439229e-01
1.8688901e-01
-3.4751618e-02
-2.3492848e-01
-3.3936772e-01
-3.3349934e-01
-2.3922309e-01
-9.1649279e-02
6.6780678e-02
1.8494388e-01
2.1969398e-01
1.6506757e-01
5.7562974e-02
-4.6276259e-02
-1.0356184e-01
-9.8490861e-02
-4.0659209e-02
3.8186720e-02
9.7575404e-02
1.0340210e-01
4.6473951e-02
-4.0320968e-02
-1.0408081e-01
-1.1047929e-01
-5.5980339e-02
3.4527653e-02
1.2154131e-01
1.6060285e-01
1.1804282e-01
-2.8483994e-03
-1.5333377e-01
-2.5943134e-01
-2.7000374e-01
-1.8229404e-01
-3.3322489e-02
1.1241455e-01
1.9588885e-01
2.0349002e-01
1.6638793e-01
1.2766176e-01
1.1054378e-01
1.1071320e-01
1.0705560e-01
7.7909964e-02
2.1074360e-02
-3.9875000e-02
-7.7067873e-02
-8.7541965e-02
-9.1754873e-02
-1.2730377e-01
-2.0043049e-01
-2.5293085e-01
-2.4516035e-01
-1.8382250e-01
-8.4442181e-02
2.6008998e-02
1.1472059e-01
1.5760949e-01
1.4936192e-01
1.0810955e-01
5.8473144e-02
1.7327379e-02
-7.3940392e-03
-1.3340523e-02
1.0732620e-03
3.2209856e-02
7.0543450e-02
1.0177233e-01
1.0664923e-01
6.6832796e-02
-2.6088599e-02
-1.5015405e-01
-2.5548231e-01
-2.9436759e-01
-2.4207034e-01
-1.0956000e-01
7.3667378e-02
2.7387616e-01
4.4459821e-01
5.3025072e-01
4.8378243e-01
3.0124744e-01
3.6665649e-02
-2.1922785e-01
-3.8214692e-01
-4.1768536e-01
-3.4645653e-01
-2.1877497e-01
-8.8135226e-02
5.8076695e-03
4.5024508e-02
3.4002993e-02
-7.2219591e-03
-5.1230610e-02
-7.0739923e-02
-5.4431672e-02
-7.2837510e-03
6.3311595e-02
1.4263274e-01
2.0564019e-01
2.2651598e-01
1.8720498e-01
9.2308403e-02
-2.5427573e-02
-1.2543424e-01
-1.8307801e-01
-1.8840486e-01
-1.3976483e-01
-4.7494394e-02
6.6187084e-02
1.5696517e-01
1.6878509e-01
8.9028541e-02
-3.1821525e-02
-1.2762599e-01
-1.6247951e-01
-1.4354853e-01
-9.9886693e-02
-5.8346442e-02
-4.3500623e-02
-6.8356960e-02
-1.1135169e-01
-1.2218326e-01
-6.5602860e-02
5.7985695e-02
2.2878649e-01
4.1616145e-01
5.6435818e-01
5.8860958e-01
4.2859648e-01
1.2427545e-01
-1.9297025e-01
-4.0683231e-01
-4.7835185e-01
-4.2406980e-01
-2.9937465e-01
-1.7743406e-01
-1.0501986e-01
-7.8087293e-02
-6.2023575e-02
-2.9759897e-02
2.6524367e-02
1.0100248e-01
1.7644510e-01
2.2951725e-01
2.3754487e-01
1.8546754e-01
8.1718023e-02
-3.9204092e-02
-1.3497962e-01
-1.7549685e-01
-1.5657774e-01
-9.4294243e-02
-1.1000947e-02
7.1519065e-02
1.3093122e-01
1.4365406e-01
9.5721959e-02
-8.4396198e-04
-1.0497470e-01
-1.7143852e-01
-1.7737133e-01
-1.2755205e-01
-4.5129935e-02
4.3091178e-02
1.1686150e-01
1.6795918e-01
1.9097924e-01
1.7100953e-01
9.3923112e-02
-3.8346990e-02
-1.8706000e-01
-2.8355322e-01
-2.8269235e-01
-1.7896398e-01
1.2615512e-02
2.5652747e-01
4.6784184e-01
5.2577294e-01
3.7310305e-01
7.7747684e-02
-2.1413198e-01
-3.8245376e-01
-3.9779515e-01
-3.0053739e-01
-1.5610383e-01
-2.5644168e-02
5.4792645e-02
7.9446229e-02
6.4566930e-02
3.4092379e-02
4.3789973e-03
-2.0724210e-02
-4.3575045e-02
-6.6843270e-02
-9.1466061e-02
-1.1244810e-01
-1.1445739e-01
-7.5700409e-02
1.3524688e-02
1.4108058e-01
2.7927259e-01
3.8840822e-01
4.2135886e-01
3.4282018e-01
1.6920431e-01
-1.3844735e-02
-1.0982968e-01
-7.9537271e-02
4.5349679e-02
