8.1491282e-02
1.2404491e-01
1.6462026e-01
1.9619628e-01
1.8716268e-01
1.4236602e-01
1.3206260e-01
1.9613891e-01
2.7299792e-01
2.4177533e-01
9.7361909e-02
-3.0558053e-02
-7.4344725e-02
-6.8542548e-02
-7.0366481e-02
-8.2983609e-02
-5.4335580e-02
3.6365187e-02
1.2364766e-01
1.0551817e-01
-7.8179283e-03
-1.1745581e-01
-1.7510433e-01
-1.8102664e-01
-1.5202805e-01
-1.0051036e-01
-1.5046440e-02
1.0187612e-01
1.8691049e-01
1.6772037e-01
7.3708995e-02
-7.5197596e-03
-4.1409597e-02
-3.8751242e-02
-3.2730490e-02
-4.2019611e-02
-4.4088857e-02
-5.0346285e-02
-1.1764537e-01
-2.4642208e-01
-3.6187623e-01
-3.9878929e-01
-3.3300493e-01
-1.7098142e-01
4.9192019e-02
2.9518382e-01
5.4063634e-01
7.0235133e-01
6.9083299e-01
5.1426402e-01
2.5863459e-01
3.8937193e-03
-1.9748893e-01
-3.0309204e-01
-3.0336571e-01
-2.2173656e-01
-1.2786796e-01
-8.5908332e-02
-5.0436568e-02
4.8467557e-02
1.8291050e-01
2.6032506e-01
2.3866272e-01
1.4111226e-01
7.6140984e-03
-1.1886706e-01
-2.0976371e-01
-2.5191208e-01
-2.5846707e-01
-2.6462953e-01
-2.8831333e-01
-3.1528063e-01
-3.1735473e-01
-2.7261458e-01
-1.7079500e-01
-1.1572012e-02
1.8321892e-01
3.5712966e-01
4.5866516e-01
5.1731881e-01
5.5085682e-01
4.8077847e-01
2.9773336e-01
9.0251093e-02
-6.9406332e-02
-1.5233938e-01
-1.7623163e-01
-1.8038300e-01
-1.8757138e-01
-1.9018242e-01
-1.7738197e-01
-1.5529475e-01
-1.2640398e-01
-8.2311332e-02
-2.3699410e-02
2.1152358e-02
2.9252963e-02
1.3822116e-02
-1.4098703e-02
-5.5850637e-02
-1.0592877e-01
-1.4727301e-01
-1.6077559e-01
-1.4185953e-01
-8.5567727e-02
1.8547295e-02
1.5968355e-01
2.7682144e-01
2.7972287e-01
1.5495065e-01
-6.6795606e-03
-1.1579478e-01
-1.4247296e-01
-1.1483504e-01
-8.6563491e-02
-5.6916978e-02
3.4765995e-02
2.0404786e-01
3.5233588e-01
3.4144049e-01
1.8441489e-01
2.9735257e-02
-5.6823369e-02
-1.0407032e-01
-1.3596195e-01
-1.4517920e-01
-1.2071635e-01
-8.1408592e-02
-4.2048327e-02
1.3365594e-02
6.4359361e-02
6.0338986e-02
1.8272579e-02
-1.0500852e-02
-1.4078982e-02
-1.6907337e-02
-3.8354982e-02
-6.5666430e-02
-7.8293716e-02
-6.5694822e-02
-4.3589575e-02
-3.8794518e-02
-3.9561693e-02
-2.7373748e-02
-2.4365497e-03
1.5160739e-02
-1.0683497e-02
-6.1339036e-02
-7.8897896e-02
-4.9126725e-02
-7.4153335e-03
1.5793447e-02
2.8730023e-02
4.7627076e-02
7.4217865e-02
9.5922768e-02
8.5479824e-02
3.7225320e-02
-2.0341300e-02
-6.3611147e-02
-8.1045946e-02
-6.4913888e-02
-1.4686804e-02
4.9543909e-02
9.5820973e-02
1.0517453e-01
7.9634682e-02
4.1026665e-02
1.3402292e-02
1.5759366e-02
4.6465281e-02
8.1424822e-02
1.1279313e-01
1.3810893e-01
1.3922914e-01
1.0612897e-01
5.0202594e-02
-7.7993953e-03
-6.8361750e-02
-1.2836669e-01
-1.6720671e-01
-1.7989081e-01
-1.5977469e-01
-1.0203155e-01
-2.2124429e-02
3.6815434e-02
3.5822819e-02
-5.3739987e-03
-4.5560606e-02
-6.5659811e-02
-6.4849328e-02
-4.2842283e-02
6.2215482e-03
6.7805728e-02
1.0878625e-01
9.9106356e-02
4.0867509e-02
-1.9129538e-02
-4.6182058e-02
-5.8290315e-02
-8.0670149e-02
-9.8560863e-02
-8.8146224e-02
-5.5043443e-02
-2.6747945e-02
-2.5483811e-02
-3.4429309e-02
-6.9441827e-03
7.3988086e-02
1.3054547e-01
9.7549518e-02
4.7372855e-02
4.5634874e-02
8.0194683e-02
9.5933248e-02
3.7766442e-02
-6.3225995e-02
-1.3758986e-01
-1.5484831e-01
-1.5719622e-01
-1.8663934e-01
-1.9599901e-01
-1.3412383e-01
-7.2722489e-03
1.0158053e-01
1.3471827e-01
1.6811378e-01
2.4104164e-01
2.7327729e-01
2.0239966e-01
7.5128272e-02
-2.3041150e-02
-5.7303072e-02
-3.9767479e-02
-1.9412111e-02
-4.0721394e-02
-8.9211625e-02
-1.1455158e-01
-8.2823397e-02
4.4343285e-03
1.0709945e-01
1.7970472e-01
2.0846272e-01
1.9202985e-01
1.3590294e-01
5.4865575e-02
-3.6286094e-02
-1.1344685e-01
-1.5328655e-01
-1.6820392e-01
-1.7798882e-01
-1.6276637e-01
-1.0759086e-01
-4.9625166e-02
-3.2775232e-02
-3.4159953e-02
-3.7380398e-03
7.0298936e-02
1.4835765e-01
1.3547955e-01
1.5721065e-02
-9.9044943e-02
-1.4861536e-01
-1.6288948e-01
-1.5975187e-01
-1.0928663e-01
1.7565094e-02
1.7326215e-01
2.4512621e-01
2.1644725e-01
1.8439398e-01
1.8855735e-01
1.7829021e-01
9.6012498e-02
-4.0565540e-02
-1.6447402e-01
-2.3332875e-01
-2.4195595e-01
-1.9781114e-01
-1.0231888e-01
-6.1758225e-03
1.3813670e-02
-3.1881320e-02
-7.1316710e-02
-5.0856993e-02
4.2517880e-02
1.5580732e-01
2.0317687e-01
1.8212843e-01
1.7741679e-01
1.8438841e-01
1.2365206e-01
1.5707479e-02
-7.4727497e-02
-1.1942986e-01
-1.0351608e-01
-4.5663405e-02
-5.3631583e-03
-1.6192133e-02
-5.3087432e-02
-8.6837943e-02
-1.0728991e-01
-1.0873805e-01
-9.1247718e-02
-6.7712138e-02
-4.4959445e-02
-1.1716477e-02
3.3065126e-02
6.2807491e-02
5.1001721e-02
1.2700077e-02
-1.8526409e-02
-3.2574814e-02
-3.3541979e-02
-1.6374949e-02
2.9577204e-02
9.5337419e-02
1.3504769e-01
1.1170241e-01
6.1691407e-02
2.0732382e-02
-2.1070813e-02
-5.3421533e-02
-5.7856432e-02
-3.9202272e-02
-1.4626387e-02
-8.8008819e-03
-2.8257888e-02
-4.4793498e-02
-2.8656152e-02
-6.1173320e-03
-3.6428936e-02
-1.0370086e-01
-1.4776960e-01
-1.4474402e-01
-9.3198043e-02
3.4524056e-03
1.3073945e-01
2.4690830e-01
2.6938804e-01
1.7606739e-01
6.8627066e-02
1.5429043e-02
7.9291931e-04
-1.4766974e-02
-4.6554271e-02
-5.5004088e-02
-7.4966519e-03
6.8448380e-02
9.1116270e-02
3.5143341e-02
-2.9724933e-02
-6.2068097e-02
-7.2583695e-02
-7.2469029e-02
-6.6016374e-02
-4.9087007e-02
-2.4279580e-02
-1.1647132e-02
-1.7251561e-02
-2.9293813e-02
-4.0673506e-02
-4.5807631e-02
-3.8633079e-02
-1.9262041e-02
5.4209051e-03
2.2947653e-02
2.6029262e-02
2.3513160e-02
2.3689037e-02
1.9142267e-02
3.9112369e-03
-6.7908294e-03
1.3791732e-03
2.3142507e-02
4.1724137e-02
3.5703650e-02
6.2978995e-03
-1.7880393e-02
-2.0946457e-02
-1.0916576e-02
2.4030709e-03
1.4821866e-02
1.0365821e-02
-2.3134601e-02
-6.3547655e-02
-8.0650726e-02
-5.7055919e-02
-2.3403249e-03
6.9496677e-03
-7.2571290e-02
-1.6331313e-01
-1.9953139e-01
-1.6926807e-01
-7.0293065e-02
7.8394215e-02
2.0977535e-01
2.4943902e-01
2.3618713e-01
2.6257036e-01
2.9770825e-01
2.3664778e-01
9.5459276e-02
-2.6223215e-02
-8.3347726e-02
-8.6604238e-02
-8.7011433e-02
-1.2268987e-01
-1.6217791e-01
-1.6528571e-01
-1.3928045e-01
-1.0746729e-01
-6.1172319e-02
1.8261775e-02
1.1721479e-01
1.7170724e-01
1.3563860e-01
5.8330009e-02
-5.2444311e-03
-5.0517957e-02
-8.2220060e-02
-9.4196652e-02
-7.7060078e-02
-3.4194238e-02
7.4246372e-03
1.3841544e-02
-1.5149405e-02
-4.9109279e-02
-6.1387435e-02
-5.7872062e-02
-4.9501615e-02
-1.6430886e-02
5.2651491e-02
1.3336882e-01
1.7140154e-01
1.3782475e-01
7.4887146e-02
3.0709071e-02
1.8548382e-02
9.5106729e-03
-2.9173259e-02
-7.3192609e-02
-9.9511454e-02
-1.1652361e-01
-1.2587952e-01
-1.2841848e-01
-1.2985466e-01
-1.1874944e-01
-8.7165989e-02
-7.0687116e-02
-8.0625976e-02
-6.0585071e-02
2.6384094e-02
1.4752249e-01
2.1154626e-01
1.7782474e-01
1.3030452e-01
1.5106511e-01
2.1201016e-01
1.8973778e-01
4.9020520e-02
-8.7986782e-02
-1.4396041e-01
-1.4074372e-01
-1.3140921e-01
-1.2935098e-01
-7.7099168e-02
5.7041222e-02
2.1071697e-01
2.4083196e-01
1.0953275e-01
-3.8975278e-02
-1.1390158e-01
-1.4275199e-01
-1.5179217e-01
-1.2447189e-01
-3.4155666e-02
1.1605383e-01
2.5213969e-01
2.5334720e-01
1.2120987e-01
-1.8249025e-02
-9.4996968e-02
-1.2223190e-01
-1.3114030e-01
-1.2551733e-01
-8.5850827e-02
-1.8541825e-02
3.2854949e-02
2.0539007e-02
-4.4524716e-02
-1.1082500e-01
-1.5330415e-01
-1.6146381e-01
-1.2715840e-01
-4.0886175e-02
1.0815436e-01
2.6941035e-01
3.2569795e-01
2.4223640e-01
1.1059693e-01
1.5257597e-02
-2.8153242e-02
-6.1152595e-02
-1.1833192e-01
-1.6881206e-01
-1.7122375e-01
-1.3218507e-01
-8.8336981e-02
-4.3667468e-02
-4.4745765e-03
-1.4772229e-02
-6.4583234e-02
-9.8938307e-02
-7.4585803e-02
3.7956752e-02
1.9528329e-01
2.8600314e-01
2.7484251e-01
2.4909008e-01
2.4118164e-01
1.7716882e-01
4.7251836e-02
-8.4538824e-02
-1.6186377e-01
-1.5673363e-01
-9.3482480e-02
-4.4234489e-02
-4.6796207e-02
-5.6689009e-02
-5.3199843e-02
-6.7617046e-02
-9.6829948e-02
-1.0713613e-01
-8.0277723e-02
-2.0176083e-02
3.7309006e-02
4.8354355e-02
3.0012393e-02
3.0701843e-02
3.8277413e-02
1.0010951e-02
-3.6656537e-02
-5.4612650e-02
-2.8827620e-02
2.2193108e-02
4.6715146e-02
1.2890179e-02
-4.4202806e-02
-7.6814859e-02
-7.4366187e-02
-5.3986340e-02
-2.7490938e-02
6.6470420e-03
3.9547305e-02
5.7132415e-02
4.6753038e-02
5.0197739e-03
-4.0056435e-02
-6.1604361e-02
-6.6179122e-02
-6.6130461e-02
-4.8589454e-02
5.4241600e-04
7.5644640e-02
1.6602023e-01
2.3047861e-01
2.2226695e-01
1.5208912e-01
6.5696384e-02
-7.5177051e-03
-6.8956023e-02
-1.1422865e-01
-1.2654359e-01
-1.0858510e-01
-8.4678161e-02
-7.4991326e-02
-7.3039292e-02
-5.8057942e-02
-1.1629521e-02
4.7448809e-02
6.5859557e-02
4.4592024e-02
4.0863408e-02
7.9478666e-02
1.2859346e-01
1.4058160e-01
9.1936383e-02
8.8775316e-03
-5.1052953e-02
-7.1113283e-02
-6.7519002e-02
-4.0280739e-02
-7.6433056e-04
1.6734775e-02
-1.0536652e-03
-2.5307771e-02
-1.7032366e-02
3.2167740e-02
5.9122173e-02
1.4092489e-02
-3.6191533e-02
-2.7939942e-02
2.1670056e-02
4.7958914e-02
-2.3456812e-03
-1.0095683e-01
-1.7938245e-01
-2.0078532e-01
-1.8469391e-01
-1.5486451e-01
-8.9949380e-02
1.6824423e-02
1.0097828e-01
9.4020072e-02
4.3764620e-02
5.7249250e-02
1.7344258e-01
3.0821648e-01
2.9769498e-01
1.3115755e-01
-3.3329338e-02
-1.1215339e-01
-1.2595225e-01
-1.1706026e-01
-1.0482963e-01
-6.4615687e-02
4.4443292e-03
6.1937982e-02
1.0889995e-01
1.4987049e-01
1.5015549e-01
1.0499904e-01
3.6152358e-02
-2.6510159e-02
-5.3566470e-02
-4.0840518e-02
-1.9938116e-02
-3.2132030e-02
-7.8589658e-02
-1.3350446e-01
-1.7952898e-01
-2.1009270e-01
-2.1600637e-01
-1.9233543e-01
-1.5256013e-01
-1.1198784e-01
-6.3800234e-02
6.3530469e-03
7.6368721e-02
1.3989847e-01
2.3236853e-01
3.4267502e-01
3.8845615e-01
2.9871826e-01
1.2778147e-01
-6.3564049e-03
-5.4698305e-02
-6.0382494e-02
-8.5492760e-02
-1.1902051e-01
-1.2400437e-01
-9.4203234e-02
-6.6862962e-02
-7.5489578e-02
-8.4594049e-02
-6.1554564e-02
-2.8103694e-02
-1.4187255e-02
-1.4900764e-02
-2.1956164e-02
-4.2572678e-02
-6.5774892e-02
-6.9150482e-02
-3.0715444e-02
6.1551523e-02
1.7630334e-01
2.2536042e-01
1.6640286e-01
7.2744091e-02
8.9389325e-03
-2.3495295e-02
-2.2661847e-02
6.0303794e-03
3.9051603e-02
5.2068542e-02
3.0041401e-02
-1.2764165e-02
-4.2257475e-02
-6.5518478e-02
-1.1239966e-01
-1.6636417e-01
-1.9959573e-01
-2.0286610e-01
-1.7819439e-01
-1.4640583e-01
-1.2487876e-01
-1.0583499e-01
-6.8065761e-02
-1.5653075e-02
1.5965141e-02
8.6179312e-03
-2.5726546e-02
-6.9380082e-02
-8.1508137e-02
1.3026647e-03
1.6485197e-01
3.0844087e-01
3.7478353e-01
4.2026907e-01
4.9202461e-01
5.0617970e-01
3.8199696e-01
1.5024821e-01
-8.5750165e-02
-2.2935803e-01
-2.6786650e-01
-2.4923042e-01
-2.0902412e-01
-1.5448100e-01
-1.1104228e-01
-1.0833164e-01
-1.3009861e-01
-1.4159000e-01
-1.1892930e-01
-5.7986986e-02
8.9785838e-03
4.8586147e-02
6.3833658e-02
4.7184586e-02
-8.6582882e-03
-6.0767222e-02
-7.5648640e-02
-5.5191577e-02
-2.0507128e-02
2.5092684e-03
1.6623006e-02
3.7223541e-02
7.7585275e-02
1.5969203e-01
2.6076354e-01
2.9256387e-01
2.1629089e-01
7.7385358e-02
-6.2763748e-02
-1.5361419e-01
-1.7832823e-01
-1.5170774e-01
-9.1099741e-02
4.4615070e-03
1.0330637e-01
1.3202080e-01
8.3413733e-02
2.8366443e-03
-7.3434077e-02
-1.1933401e-01
-1.3766576e-01
-1.5881556e-01
-1.9073038e-01
-2.0450457e-01
-1.8182035e-01
-1.2164982e-01
-1.7776289e-02
1.1844370e-01
2.4657758e-01
3.0181228e-01
2.4166079e-01
1.2012201e-01
2.0855602e-02
-1.3169457e-02
-1.5572630e-02
-5.8184579e-02
-1.2045997e-01
-1.4451250e-01
-1.1451134e-01
-5.9169610e-02
-1.9853749e-02
1.8623743e-02
8.5030164e-02
1.1723828e-01
5.4507249e-02
-2.7809321e-02
-5.2850694e-02
-2.9032150e-02
-1.6149658e-03
-2.3895758e-02
-9.3097195e-02
-1.4114098e-01
-1.1405284e-01
-6.9574686e-02
-8.6345756e-02
-1.0612700e-01
-5.2835318e-02
6.5403403e-02
1.7816340e-01
1.8839341e-01
8.9417922e-02
-1.7945648e-02
-3.3837454e-02
5.2619511e-02
1.5658592e-01
1.9468859e-01
1.5655142e-01
7.5685358e-02
-1.1348463e-02
-7.5115088e-02
-9.0875444e-02
-5.7774978e-02
-1.3523470e-02
-1.0317979e-02
-5.1926814e-02
-7.9726169e-02
-4.6209152e-02
3.8369360e-02
1.1200977e-01
1.1069736e-01
3.9063161e-02
-3.8998040e-02
-7.2088526e-02
-5.2235646e-02
-1.6270891e-02
-2.2432451e-02
-7.1194872e-02
-1.0581142e-01
-1.0000504e-01
-7.2235539e-02
-5.0001288e-02
-3.7484764e-02
-5.0779094e-03
7.4918982e-02
1.6317155e-01
1.8548681e-01
1.3836551e-01
7.1414075e-02
2.8475605e-02
3.7672606e-02
8.8665878e-02
1.2295046e-01
8.5224226e-02
-1.1755017e-02
-1.0578421e-01
-1.5298987e-01
-1.4344331e-01
-9.8723576e-02
-5.3426008e-02
-2.9226596e-02
-3.0993635e-02
-3.9170430e-02
-2.6884901e-02
1.4501518e-02
5.5411564e-02
6.2690584e-02
3.1736666e-02
-3.5137739e-02
-9.5175795e-02
-8.2083988e-02
2.3887743e-02
1.3925260e-01
1.3599509e-01
2.5169994e-02
-8.1936731e-02
-1.2339446e-01
-9.2632688e-02
-4.2471135e-02
-3.7540578e-02
-4.7244897e-02
-3.8809170e-03
9.3689883e-02
1.7059607e-01
1.1943050e-01
-5.1596821e-02
-2.0730442e-01
-2.6518851e-01
-2.2216917e-01
-1.2095357e-01
-2.1084033e-02
7.6211616e-02
1.6570702e-01
1.9188972e-01
1.6886197e-01
1.4933964e-01
1.2055968e-01
7.1078082e-02
4.0489040e-03
-5.9815130e-02
-6.7087013e-02
-2.6113443e-03
9.9983751e-02
1.8548492e-01
1.8815439e-01
1.0675845e-01
1.7966127e-02
-4.5004108e-02
-1.0265078e-01
-1.4994175e-01
-1.6206773e-01
-1.3337812e-01
-8.4798779e-02
-3.7567539e-02
7.7879504e-03
4.4799160e-02
4.6512206e-02
1.2079246e-02
-3.1311777e-02
-6.6629995e-02
-8.4204207e-02
-8.5993949e-02
-8.6523345e-02
-8.4857208e-02
-6.1036752e-02
-5.8971194e-03
6.4266832e-02
1.3081428e-01
1.6560901e-01
1.4276662e-01
9.0188758e-02
4.9302972e-02
2.6774124e-02
2.3567818e-02
4.0013503e-02
5.0421953e-02
3.9654164e-02
2.7086443e-02
2.0034702e-02
7.2558758e-03
1.1337798e-03
3.0443011e-02
7.8476537e-02
7.7578759e-02
1.0353486e-02
-6.5399481e-02
-1.1136063e-01
-1.2551511e-01
-1.2208650e-01
-1.1386883e-01
-9.4327129e-02
-6.0027815e-02
-2.3769422e-02
-2.5252835e-03
2.3870526e-03
-5.6059711e-03
-2.7374077e-02
-5.1746775e-02
-6.3673987e-02
-6.2155862e-02
-5.3251972e-02
-3.8617281e-02
-1.8140875e-02
1.8542773e-02
9.4670046e-02
1.6717626e-01
1.4818697e-01
5.7884968e-02
-1.8900371e-02
-4.4635238e-02
-1.8007011e-02
3.3422218e-02
6.2902715e-02
5.1237187e-02
1.4873580e-02
-2.1587864e-02
-3.8776429e-02
-2.4340070e-02
2.2972642e-02
8.4741084e-02
1.0357220e-01
3.3132379e-02
-8.3304563e-02
-1.7681541e-01
-2.1512830e-01
-2.0107687e-01
-1.6227030e-01
-1.1464646e-01
-6.9157968e-02
-2.3760882e-02
5.6052846e-02
1.9385999e-01
3.4241254e-01
3.9410295e-01
3.2366240e-01
2.0382600e-01
7.9571333e-02
-2.7650827e-02
-1.0174545e-01
-1.3743688e-01
-1.3011130e-01
-9.4655418e-02
-7.0254287e-02
-7.4867131e-02
-8.0840699e-02
-6.7009088e-02
-4.5452976e-02
-2.5215566e-02
-4.6898027e-03
1.2853865e-02
2.1713298e-02
1.4022699e-02
-7.3812423e-03
-2.9600984e-02
-5.1429682e-02
-7.5620339e-02
-9.6316512e-02
-1.0609592e-01
-1.0770884e-01
-1.0775379e-01
-1.0039060e-01
-6.8423770e-02
1.9109203e-03
1.0388451e-01
1.5835578e-01
1.0971236e-01
5.2763469e-02
7.0804058e-02
1.5019106e-01
2.3080498e-01
2.4116393e-01
1.6325556e-01
3.9415415e-02
-6.5506187e-02
-1.1789710e-01
-1.2384829e-01
-1.0342027e-01
-7.2774516e-02
-5.0358870e-02
-6.0400309e-02
-9.4258752e-02
-1.1453763e-01
-1.0362202e-01
-6.7718718e-02
-3.2908177e-02
-1.8910468e-02
1.3735580e-03
5.9885850e-02
1.5621844e-01
2.4182061e-01
2.4236475e-01
1.5002096e-01
2.9878053e-02
-6.0367590e-02
-1.1876152e-01
-1.5858026e-01
-1.6469693e-01
-1.3028316e-01
-7.8064897e-02
-4.5420771e-02
-5.7845873e-02
-9.3340406e-02
-9.8071768e-02
-4.0859448e-02
2.3902081e-02
2.9121461e-02
1.6143263e-02
3.7306956e-02
8.6668747e-02
1.5023423e-01
2.0735002e-01
2.2661534e-01
1.8768349e-01
1.0398272e-01
2.2825519e-02
-2.5079922e-02
-5.4554953e-02
-8.0180818e-02
-1.0766415e-01
-1.4616324e-01
-1.8409453e-01
-1.9722242e-01
-1.7298815e-01
-1.1401916e-01
-2.7600915e-02
7.0325516e-02
1.4481349e-01
1.6449723e-01
1.2091701e-01
4.0310410e-02
-2.3918270e-02
-3.4903061e-02
-2.0056622e-03
2.0989613e-02
-2.8733203e-03
-4.4346823e-02
-7.1968044e-02
-7.9751920e-02
-5.8151568e-02
4.0711230e-03
1.0280147e-01
2.0741888e-01
2.5915369e-01
2.0751215e-01
9.0309212e-02
-1.1892240e-02
-7.4369836e-02
-1.1171558e-01
-1.4446353e-01
-1.6911156e-01
-1.5339382e-01
-9.0491721e-02
-1.2641474e-03
9.5307586e-02
1.7390679e-01
2.0093172e-01
1.6418281e-01
8.6339375e-02
-4.9180674e-03
-8.4060585e-02
-1.3251877e-01
-1.4644840e-01
-1.3845700e-01
-1.2616947e-01
-9.8381083e-02
-6.2550923e-02
-5.2863196e-02
-6.1162255e-02
-5.6590119e-02
-2.4401438e-02
4.5373462e-02
1.4187642e-01
2.1289861e-01
1.9241764e-01
6.4505598e-02
-9.7709018e-02
-2.0776690e-01
-2.2458402e-01
-1.4308113e-01
-1.4132158e-02
8.5403659e-02
1.3598993e-01
1.5567360e-01
1.5484858e-01
1.9251672e-01
2.7142064e-01
2.6655187e-01
1.3999118e-01
-1.3185402e-02
-9.9897534e-02
-8.0767269e-02
-1.4913431e-02
-1.2623328e-02
-8.5382884e-02
-1.5982893e-01
-1.9743280e-01
-2.0570066e-01
-1.7810793e-01
-1.0286661e-01
2.0010711e-03
8.2333527e-02
8.4946196e-02
3.6873523e-02
9.1530739e-04
3.5983417e-03
1.6765666e-02
-2.0387695e-03
-2.1409361e-02
1.1800680e-02
9.7573787e-02
1.6851023e-01
1.4091627e-01
3.5634913e-02
-5.5931581e-02
-8.4606713e-02
-7.2715205e-02
-6.5061059e-02
-5.6974145e-02
-2.4640542e-02
2.9763986e-02
6.8535676e-02
5.3350040e-02
4.0790863e-03
-3.8292912e-02
-5.0516195e-02
-3.3319241e-02
-1.5015363e-02
-1.8696466e-02
-3.8732334e-02
-5.1986987e-02
-3.9369698e-02
-9.0988753e-03
7.7195349e-03
-7.5399862e-03
-4.9019152e-02
-8.5764024e-02
-7.6182529e-02
-9.3241827e-03
5.9093088e-02
5.7915265e-02
-1.7412967e-02
-1.1797409e-01
-1.7758281e-01
-1.6093472e-01
-1.2440401e-01
-1.1521849e-01
-6.6475922e-02
8.0527721e-02
2.9985236e-01
4.8812426e-01
5.1342305e-01
3.4993906e-01
1.1456154e-01
-5.0463227e-02
-8.4810133e-02
-5.2987990e-02
-7.4852067e-02
-1.4209433e-01
-1.5968262e-01
-9.2944725e-02
3.5751277e-02
1.4395752e-01
1.4683160e-01
5.8714154e-02
-5.2508687e-02
-1.3976165e-01
-1.8764548e-01
-1.9594475e-01
-1.6431831e-01
-9.8843062e-02
-1.9579020e-02
3.5848707e-02
4.0950569e-02
1.0434673e-02
-3.2482110e-02
-8.2761851e-02
-1.3279997e-01
-1.6020842e-01
-1.4053190e-01
-7.8853766e-02
5.4381173e-03
1.2253040e-01
2.4523605e-01
2.7225640e-01
1.8184684e-01
7.0101396e-02
6.3631959e-03
-1.2688768e-03
2.8352153e-02
5.1931798e-02
4.2346931e-02
2.8926757e-02
4.5916508e-02
7.0462674e-02
5.6122773e-02
2.1440126e-03
-5.1469275e-02
-7.2038314e-02
-5.0432247e-02
-5.5078375e-03
2.9381189e-02
3.5607517e-02
2.1045180e-02
1.1152868e-02
2.0747449e-02
3.7502289e-02
4.1917336e-02
2.5716069e-02
-2.0520614e-02
-9.3628231e-02
-1.6028881e-01
-1.9537970e-01
-1.9685917e-01
-1.6647116e-01
-1.0970023e-01
-5.4815442e-02
-2.3744295e-02
1.2679365e-02
8.8664546e-02
2.0346250e-01
2.9459065e-01
2.7129631e-01
1.5370611e-01
4.5430099e-02
-3.7158075e-03
-2.1103514e-02
-4.9439421e-02
-8.7948590e-02
-1.1489547e-01
-1.1819764e-01
-9.6961668e-02
-6.9935797e-02
-4.9674256e-02
-2.6983523e-02
-7.9136681e-03
-1.1070916e-02
-3.2609989e-02
-4.8622918e-02
-3.8595113e-02
-3.9511404e-03
4.1497155e-02
7.0400457e-02
5.9623510e-02
3.8469270e-02
4.9994555e-02
6.1918260e-02
1.7075214e-02
-5.2455687e-02
-8.3648495e-02
-5.7442933e-02
1.6714883e-02
8.1638028e-02
7.3127528e-02
1.2841413e-02
-3.2214194e-02
-3.9144384e-02
-2.8219283e-02
-1.5629949e-02
-9.5970549e-03
-2.4853105e-02
-5.9614615e-02
-9.6195865e-02
-1.2053095e-01
-1.2302188e-01
-1.1217713e-01
-9.9071017e-02
-6.7478636e-02
-4.5146590e-03
8.1583975e-02
1.8314508e-01
2.8127139e-01
3.3365273e-01
3.1051691e-01
2.0183689e-01
4.4410344e-02
-8.7859400e-02
-1.6454149e-01
-1.8633608e-01
-1.7107551e-01
-1.5100391e-01
-1.2745660e-01
-7.7710715e-02
7.7026434e-03
1.0715714e-01
1.6882181e-01
1.6051134e-01
1.0586453e-01
5.3358687e-02
2.8779918e-02
1.6738652e-02
-3.9854529e-03
-3.7173786e-02
-8.0719213e-02
-1.1638414e-01
-1.2470415e-01
-1.1072436e-01
-7.6584675e-02
-1.9300950e-02
4.0081527e-02
7.0439611e-02
6.9330581e-02
6.8567941e-02
9.6288007e-02
1.4987851e-01
1.7471497e-01
1.2445768e-01
4.0518203e-02
-2.5847054e-02
-7.1802340e-02
-1.0321217e-01
-1.1859680e-01
-1.1894339e-01
-1.0692279e-01
-8.8665515e-02
-6.6606230e-02
-4.6102108e-02
-4.0518466e-02
-4.1636724e-02
-4.1483488e-02
-5.1169294e-02
-6.7728278e-02
-7.0207786e-02
-4.7864354e-02
-1.7281346e-02
8.0393615e-04
1.1878012e-02
4.2059049e-02
1.1426100e-01
1.9361318e-01
1.9570224e-01
1.2001453e-01
5.0473762e-02
2.4472834e-02
1.6122268e-02
1.1158316e-02
1.5791997e-02
3.1242299e-03
-3.5847479e-02
-6.7498626e-02
-7.8606264e-02
-6.9799069e-02
-3.9865500e-02
-1.9088459e-02
-3.2087807e-02
-3.8335658e-02
-1.6967331e-02
2.6110038e-03
1.7554002e-02
2.9135221e-02
1.5358658e-02
-1.7713273e-02
-3.7349901e-02
-2.7198190e-02
5.4587647e-03
3.3620493e-02
2.6193837e-02
-1.4565386e-02
-5.2128999e-02
-6.7605099e-02
-5.6230822e-02
4.0818196e-03
1.2670261e-01
2.5591464e-01
2.9708147e-01
2.2575717e-01
8.9918929e-02
-4.4926240e-02
-1.3289061e-01
-1.7146353e-01
-1.7750974e-01
-1.5408016e-01
-9.6905225e-02
-1.8963024e-02
3.8728959e-02
4.0250645e-02
2.2893482e-03
-2.8626962e-02
-3.0359404e-02
-1.8774351e-02
-3.1048361e-02
-7.3800543e-02
-1.0740754e-01
-1.0286134e-01
-5.8589044e-02
2.2965393e-02
1.0856499e-01
1.3013866e-01
7.2159074e-02
-4.9038076e-03
-4.3030118e-02
-3.2035351e-02
1.8292259e-02
9.0407740e-02
1.3936238e-01
1.3092312e-01
8.2101811e-02
3.4202761e-02
7.7039693e-03
-2.6532044e-03
-1.5629852e-02
-4.4325489e-02
-7.1264065e-02
-7.5561750e-02
-5.8576350e-02
-2.2555917e-02
1.6979451e-02
3.2326043e-02
2.2470646e-02
-2.3986989e-03
-3.4296748e-02
-6.0683867e-02
-7.0696572e-02
-6.7110271e-02
-6.3738845e-02
-5.5939130e-02
-3.3500152e-02
-1.0640653e-02
6.4720966e-03
3.3408070e-02
8.5117910e-02
1.6225817e-01
2.2450995e-01
2.1883817e-01
1.4231836e-01
4.0599239e-02
-4.2160961e-02
-9.4696180e-02
-1.1976470e-01
-1.1979240e-01
-1.0269655e-01
-7.7152747e-02
-5.5169025e-02
-5.0132302e-02
-5.3390378e-02
-4.9827688e-02
-4.6464030e-02
-4.5691146e-02
-3.8757233e-02
-2.5853498e-02
-6.7434039e-03
1.9816863e-02
4.9368807e-02
7.6137490e-02
8.7685251e-02
8.1638500e-02
6.5355449e-02
3.8625234e-02
1.5551637e-02
1.1833519e-02
1.8249587e-02
1.7893495e-02
8.5372243e-03
4.1631734e-04
6.9202163e-03
3.9974754e-02
7.2277371e-02
6.3288262e-02
2.7852233e-02
4.8436551e-03
1.3972568e-02
2.8660682e-02
4.6184193e-03
-4.5565614e-02
-8.1509676e-02
-9.6586166e-02
-1.0615277e-01
-1.1637836e-01
-1.2262383e-01
-1.2042552e-01
-1.1554669e-01
-1.1418212e-01
-1.0744842e-01
-8.1546363e-02
-3.8257875e-02
-2.3561716e-02
-5.8943074e-02
-7.1772007e-02
-2.0527129e-03
1.3327641e-01
2.4344184e-01
2.6786636e-01
2.7688327e-01
2.9123159e-01
2.2860721e-01
1.0155265e-01
-3.9143208e-03
-7.3835062e-02
-1.1972442e-01
-1.3337669e-01
-1.2730038e-01
-1.2861601e-01
-1.4300691e-01
-1.5397332e-01
-1.5317089e-01
-1.4242883e-01
-1.2136596e-01
-8.5526009e-02
-2.6372334e-02
5.5008084e-02
1.4105063e-01
2.1624339e-01
2.6545263e-01
2.5786315e-01
1.7809785e-01
6.4609808e-02
-3.3384427e-02
-9.2930263e-02
-9.8581099e-02
-6.1035072e-02
-2.9644073e-02
-3.5925694e-02
-5.6700899e-02
-6.0840526e-02
-5.0110914e-02
-4.3342194e-02
-5.1390421e-02
-5.6490491e-02
-2.4055185e-02
5.5361895e-02
1.5052476e-01
2.0028044e-01
1.5521439e-01
4.0429985e-02
-6.3249967e-02
-1.1033361e-01
-1.1617348e-01
-9.5631491e-02
-4.0141336e-02
4.1122548e-02
9.6843141e-02
8.0361467e-02
1.7092055e-02
-3.4737154e-02
-4.8810879e-02
-2.8982412e-02
8.5773406e-03
5.1221860e-02
8.4341457e-02
8.2272951e-02
3.3627734e-02
-3.7399092e-02
-9.6267922e-02
-1.2025652e-01
-1.0073499e-01
-5.8979184e-02
-3.5499381e-02
-4.8844690e-02
-7.5683477e-02
-8.3730074e-02
-7.0084998e-02
-4.2637350e-02
8.5253381e-04
5.6665945e-02
9.3223881e-02
7.2601010e-02
7.0045461e-03
-4.8337500e-02
-5.8293112e-02
-1.3596698e-02
7.2317214e-02
1.3211325e-01
1.0971754e-01
4.1435630e-02
9.1470075e-04
1.6650110e-02
4.5659717e-02
2.9325352e-02
-2.8550756e-02
-7.5604072e-02
-6.4325650e-02
1.1151668e-02
1.1574806e-01
2.0088903e-01
2.2525519e-01
1.6729503e-01
5.4390654e-02
-5.0666554e-02
-1.1182134e-01
-1.2785024e-01
-1.1041370e-01
-8.2594032e-02
-6.9376760e-02
-7.1553231e-02
-7.1983021e-02
-5.7231099e-02
-4.0194951e-02
-3.8895659e-02
-3.7531896e-02
-1.8122637e-02
1.1802786e-02
2.7626762e-02
2.0549005e-02
1.3837334e-02
2.5386497e-02
5.4242764e-02
7.4977902e-02
5.8997828e-02
2.2146690e-02
-9.8877512e-03
-2.9064614e-02
-3.4743101e-02
-3.0254865e-02
-1.7980048e-02
-8.9169230e-03
-2.5389450e-02
-7.3272599e-02
-1.2110331e-01
-1.3686152e-01
-1.1543109e-01
-7.0171737e-02
-1.6477024e-02
3.3966833e-02
7.8388176e-02
1.2871125e-01
1.7976885e-01
1.9947777e-01
1.6787243e-01
9.7453032e-02
1.7103216e-02
-5.6714542e-02
-1.1229262e-01
-1.2871744e-01
-1.0292748e-01
-5.5260713e-02
-2.2451484e-02
-1.7035398e-02
-5.7089035e-03
3.2649754e-02
7.8777819e-02
8.5672170e-02
3.4668595e-02
-2.4475245e-02
-4.2939248e-02
-3.2232358e-02
-7.0320184e-03
1.3838869e-02
-1.4551318e-02
-7.0338533e-02
-9.2676660e-02
-6.2575159e-02
1.4335815e-02
1.3016968e-01
2.5306166e-01
3.1751742e-01
2.7339320e-01
1.4303838e-01
1.4318837e-02
-5.7170151e-02
-8.0209704e-02
-8.8990122e-02
-9.7323906e-02
-9.2566826e-02
-7.9807545e-02
-6.9106359e-02
-7.7000331e-02
-1.1365469e-01
-1.4528150e-01
-1.4476403e-01
-1.2181945e-01
-9.3736683e-02
-5.1958983e-02
2.7540091e-02
1.3555919e-01
1.9968143e-01
1.6303116e-01
8.2941151e-02
3.1835940e-02
2.0508139e-02
1.7749100e-02
-3.2528887e-02
-1.2982255e-01
-2.1725111e-01
-2.5704011e-01
-2.3128179e-01
-1.3511933e-01
-3.1262680e-02
-8.9845916e-03
-5.8397771e-02
-9.5797787e-02
-5.5814628e-02
6.9241643e-02
2.2171672e-01
3.1648943e-01
3.0776230e-01
2.4341357e-01
1.9215196e-01
1.4988045e-01
1.0156946e-01
4.5276358e-02
-1.9042822e-02
-6.4491489e-02
-7.5023363e-02
-6.7173278e-02
-5.3116448e-02
-3.7421532e-02
-3.1700440e-02
-2.6448923e-02
-4.2452706e-03
3.2149829e-02
6.1008312e-02
5.7076950e-02
1.6632793e-02
-4.6021840e-02
-1.0450092e-01
-1.4820221e-01
-1.8368299e-01
-1.9125654e-01
-1.5609653e-01
-1.0791397e-01
-6.8067118e-02
-3.3175230e-03
1.1959793e-01
2.6337309e-01
3.2704559e-01
2.6113090e-01
1.2938741e-01
1.0657972e-02
-6.5068876e-02
-1.0066530e-01
-1.0628435e-01
-9.2119629e-02
-8.0919320e-02
-8.3797704e-02
-7.5338082e-02
-2.7871717e-02
1.9975287e-02
-2.0175889e-03
-7.6166823e-02
-1.3906169e-01
-1.6024996e-01
-1.1724586e-01
-4.5767063e-03
1.5014123e-01
2.7987816e-01
2.8377557e-01
1.6080227e-01
3.8440974e-02
-9.1412612e-03
-1.8124909e-03
7.3199392e-03
-1.7585243e-02
-5.0147531e-02
-4.6499632e-02
-4.3442570e-03
1.4552517e-02
-2.4787720e-02
-6.6508146e-02
-8.0128303e-02
-8.9985823e-02
-1.1102186e-01
-1.2850719e-01
-1.1423056e-01
-6.4719932e-02
1.4258450e-03
5.3729029e-02
7.1723178e-02
7.1039892e-02
7.2933486e-02
7.8987679e-02
7.1555348e-02
4.1488555e-02
1.0909627e-02
-9.2941373e-04
7.6545347e-03
3.3251792e-02
5.5507153e-02
5.2479432e-02
3.0765259e-02
7.8853117e-03
-8.3383502e-03
-2.3355950e-02
-4.9302698e-02
-8.1637693e-02
-9.3991425e-02
-7.7514593e-02
-5.8895416e-02
-6.4661639e-02
-8.6960924e-02
-9.9066010e-02
-8.6487869e-02
-5.2290848e-02
-2.9339703e-03
6.4914875e-02
1.3444468e-01
1.5053011e-01
9.6236842e-02
3.6101134e-02
1.9571961e-02
4.6610340e-02
9.5245055e-02
1.0641981e-01
5.1702177e-02
-2.1725168e-02
-6.9411151e-02
-8.7586493e-02
-8.2816814e-02
-6.9767511e-02
-6.9045079e-02
-7.0539196e-02
-4.7754778e-02
5.4465700e-03
8.5416348e-02
1.6947702e-01
2.0421586e-01
1.6306527e-01
8.9194976e-02
3.3822443e-02
-1.0418110e-04
-2.1111259e-02
-3.4178983e-02
-5.2783424e-02
-7.5913212e-02
-8.9070870e-02
-8.2993447e-02
-5.8614309e-02
-3.6421936e-02
-3.6719607e-02
-4.7500171e-02
-5.0181391e-02
-4.1730394e-02
-2.0018811e-02
2.1459743e-02
7.7949931e-02
1.2122597e-01
1.3549381e-01
1.2595697e-01
8.4214489e-02
1.4911059e-02
-5.1389274e-02
-9.6302690e-02
-1.1871670e-01
-1.1954795e-01
-9.9906538e-02
-6.8761642e-02
-5.0260852e-02
-5.9324770e-02
-7.4522302e-02
-6.7587995e-02
-3.6894985e-02
5.3736197e-03
5.0798004e-02
9.0553164e-02
1.1542305e-01
1.1823522e-01
9.6447908e-02
5.6746635e-02
2.0940511e-02
2.8562048e-03
-1.2495353e-02
-3.8249914e-02
-6.4157385e-02
-6.8016323e-02
-4.2670384e-02
-7.8843848e-03
4.0502977e-03
-1.3875125e-02
-2.4710219e-02
9.9054112e-03
9.0401306e-02
1.7607047e-01
2.0835933e-01
1.5381161e-01
4.3747276e-02
-4.8910709e-02
-8.6762751e-02
-8.9221317e-02
-9.0542439e-02
-9.6814744e-02
-9.7101948e-02
-8.9068110e-02
-6.7824562e-02
-2.8190459e-02
2.2413223e-02
6.6537003e-02
7.2095994e-02
2.4484033e-02
-3.8042095e-02
-7.6139038e-02
-8.0128765e-02
-4.8758412e-02
1.4760260e-02
9.8714868e-02
1.6886389e-01
1.7540401e-01
1.0261688e-01
-4.2081467e-03
-8.9798614e-02
-1.3319776e-01
-1.3459971e-01
-1.0739466e-01
-5.9248099e-02
1.3023348e-02
7.4077842e-02
7.1590122e-02
2.7081443e-02
-4.0455627e-04
2.9642385e-04
1.4315461e-02
2.5657628e-02
1.6047407e-02
-1.0693627e-02
-3.6199357e-02
-5.6117219e-02
-6.4768719e-02
-4.9025849e-02
-2.7810603e-02
-3.2826083e-02
-5.4119250e-02
-6.4346659e-02
-4.4828111e-02
1.7942103e-02
9.2649670e-02
1.2240696e-01
1.0088027e-01
6.5591481e-02
5.7610246e-02
8.7258415e-02
1.3069197e-01
1.4406381e-01
9.3511187e-02
1.0500837e-02
-4.8167468e-02
-7.1382029e-02
-7.6543026e-02
-6.8838501e-02
-5.6048206e-02
-5.2383538e-02
-5.1132123e-02
-4.6924001e-02
-3.9978235e-02
-2.8642256e-02
-3.3102415e-02
-6.9373142e-02
-1.0990557e-01
-1.2026212e-01
-1.0481743e-01
-7.7409068e-02
-2.5539325e-02
6.3143621e-02
1.7411203e-01
2.6688251e-01
2.8738295e-01
2.1568694e-01
1.0366088e-01
1.7674705e-02
-3.1878253e-02
-5.8750653e-02
-6.4996134e-02
-5.6732489e-02
-3.9805100e-02
-2.6023686e-02
-2.8085136e-02
-2.8856114e-02
-6.5301403e-03
3.4589978e-02
5.2930064e-02
1.1085495e-02
-6.2642370e-02
-1.2019142e-01
-1.4328041e-01
-1.4445677e-01
-1.3910849e-01
-1.2178209e-01
-9.0955931e-02
-6.1152627e-02
-4.1857907e-02
-5.2003762e-03
8.4396808e-02
2.2125567e-01
3.3338902e-01
3.2659130e-01
2.0965217e-01
7.9370613e-02
1.0266282e-03
-4.4224318e-02
-9.5185766e-02
-1.3016758e-01
-1.2487533e-01
-9.2698113e-02
-5.9949170e-02
-4.8092870e-02
-4.8071867e-02
-3.2944415e-02
4.8969852e-03
3.1411801e-02
1.7972810e-02
-6.9656182e-03
-1.0645209e-02
6.6112457e-03
2.8694634e-02
3.0091971e-02
3.2451875e-03
-2.8129028e-02
-4.4649741e-02
-5.4783083e-02
-7.0468025e-02
-7.8480872e-02
-5.9070396e-02
-1.9206809e-02
1.1267769e-02
-2.8496575e-03
-6.5948835e-02
-1.3143747e-01
-1.5584981e-01
-1.3142516e-01
-7.4966082e-02
-7.9042424e-03
6.0837880e-02
1.0804723e-01
9.8934967e-02
5.1347307e-02
2.7795549e-02
7.1773587e-02
1.5275838e-01
1.6804386e-01
9.6739431e-02
3.3073027e-02
3.0033472e-02
7.7772300e-02
1.4317368e-01
1.7814826e-01
1.5063857e-01
6.1399715e-02
-4.6620406e-02
-1.3136526e-01
-1.8777383e-01
-2.1527262e-01
-1.9944816e-01
-1.4907200e-01
-9.4176536e-02
-3.6627962e-02
3.6919358e-02
1.1253208e-01
1.4367306e-01
1.0447193e-01
3.3739908e-02
-7.9291445e-03
-6.9223791e-03
1.3108845e-02
4.0676550e-02
6.9380346e-02
7.9998988e-02
5.6061886e-02
5.5114129e-03
-3.7369450e-02
-5.2579973e-02
-5.1663549e-02
-4.5837286e-02
-3.9982970e-02
-3.7303294e-02
-2.6775143e-02
2.6233572e-03
4.4841515e-02
8.4585894e-02
9.9642692e-02
7.8214310e-02
3.2896357e-02
-2.0978366e-02
-7.7093385e-02
-1.2707698e-01
-1.5575754e-01
-1.5094857e-01
-1.1407176e-01
-5.5535137e-02
1.3501174e-02
6.6411152e-02
7.3216685e-02
4.7261813e-02
2.1428999e-02
1.7292670e-03
-9.1828740e-03
-9.0412771e-03
-1.6930513e-02
-3.7939345e-02
-5.4411716e-02
-5.3638256e-02
-2.5947626e-02
3.8025739e-02
1.1694161e-01
1.5279604e-01
1.2209181e-01
5.4100044e-02
-2.2231347e-02
-7.8896758e-02
-8.8444452e-02
-7.2409082e-02
-7.2968756e-02
-7.0139648e-02
-2.2665874e-02
6.8613282e-02
1.6190451e-01
1.9520448e-01
1.5332846e-01
8.6463556e-02
5.0526351e-02
4.2451442e-02
2.5481386e-02
-1.4703527e-03
-3.1549181e-02
-6.4585874e-02
-8.4998281e-02
-8.3614173e-02
-6.4792606e-02
-3.3881519e-02
-1.7251402e-02
-4.1280400e-02
-8.3789221e-02
-1.0351237e-01
-7.1124482e-02
2.2661797e-02
1.2577151e-01
1.4550713e-01
7.8488589e-02
1.2297115e-02
1.3539053e-03
1.3563794e-02
-1.5209028e-02
-7.4016838e-02
-1.0512895e-01
-8.7351823e-02
-3.4878388e-02
1.9495851e-02
4.2678113e-02
2.1413347e-02
-4.4568059e-02
-1.3878215e-01
-2.1734335e-01
-2.4507727e-01
-2.1433828e-01
-1.4869966e-01
-7.0120997e-02
3.9762196e-02
1.6898487e-01
2.5437250e-01
2.9223024e-01
3.0474408e-01
2.4776301e-01
1.2527330e-01
1.6960264e-02
-3.6451888e-02
-4.1980048e-02
-2.0965623e-02
4.5912261e-04
-3.9688742e-03
-3.6737479e-02
-6.4774182e-02
-6.0349951e-02
-1.8423034e-02
3.8678549e-02
6.3459812e-02
4.0481709e-02
5.5681750e-03
-1.6215836e-02
-2.0546856e-02
-1.5635221e-02
-2.5617693e-02
-4.0953091e-02
-3.2264803e-02
1.2065733e-03
3.0589681e-02
2.8667769e-02
-5.9597696e-03
-5.2806690e-02
-8.8600185e-02
-1.0893011e-01
-1.2204363e-01
-1.3036193e-01
-1.2119949e-01
-8.6916142e-02
-3.3044976e-02
2.9849787e-02
1.0215647e-01
1.9007403e-01
2.4847101e-01
2.0278922e-01
7.3126059e-02
-2.4110533e-02
-2.9535680e-02
2.0665745e-02
6.1001231e-02
4.6051313e-02
-3.2434346e-03
-3.4475181e-02
-4.3700428e-02
-6.0653505e-02
-9.0141520e-02
-1.1863307e-01
-1.3306854e-01
-1.2417994e-01
-9.4369577e-02
-4.0824141e-02
4.3142663e-02
1.3519316e-01
1.8951799e-01
1.6880326e-01
8.8245002e-02
1.7092582e-02
-2.3058801e-03
2.3606091e-02
5.7852692e-02
6.7172057e-02
4.9466890e-02
6.6731834e-03
-5.0210538e-02
-1.0897340e-01
-1.6432227e-01
-2.0407872e-01
-2.0929116e-01
-1.7048579e-01
-1.0601868e-01
-3.0826895e-02
7.1177269e-02
1.8598746e-01
2.4620224e-01
2.1854394e-01
1.4449183e-01
8.8497479e-02
7.9561516e-02
8.2004232e-02
3.4166868e-02
-5.6854729e-02
-1.3308535e-01
-1.7129292e-01
-1.7762900e-01
-1.6065177e-01
-1.2758758e-01
-7.6726153e-02
-4.6208588e-03
7.7119589e-02
1.5151430e-01
1.9602820e-01
1.8305861e-01
1.1671311e-01
3.9127894e-02
-1.6255989e-02
-4.8851343e-02
-6.5369949e-02
-7.7193925e-02
-1.0211272e-01
-1.3635929e-01
-1.5268356e-01
-1.3466547e-01
-9.1342474e-02
-3.6129912e-02
7.6752107e-03
2.3440731e-02
3.1188882e-02
5.9704680e-02
1.2172955e-01
1.9120960e-01
2.3012332e-01
2.2410401e-01
1.5848384e-01
4.3938823e-02
-7.5384016e-02
-1.7181289e-01
-2.3305185e-01
-2.4170962e-01
-2.0163733e-01
-1.3142077e-01
-2.9332432e-02
1.0588623e-01
2.3065402e-01
2.7377551e-01
2.0847034e-01
8.5261929e-02
-1.6777042e-02
-6.8718056e-02
-8.3085809e-02
-7.7549790e-02
-7.7375411e-02
-8.8164784e-02
-8.4974729e-02
-6.0473986e-02
-2.8580808e-02
-6.3614347e-03
-1.8419417e-02
-5.0335977e-02
-5.4390844e-02
-2.1899090e-02
2.4292488e-02
6.1078496e-02
7.5833763e-02
9.1014791e-02
1.4129839e-01
2.0370804e-01
2.1274632e-01
1.5629775e-01
6.8051475e-02
-2.2861330e-02
-8.9927666e-02
-1.2375012e-01
-1.3106190e-01
-1.1726900e-01
-9.0060787e-02
-5.8521571e-02
-2.7793013e-02
-2.0873476e-03
1.3707021e-02
1.5153745e-02
6.2739109e-03
-4.5300741e-03
-1.9669443e-02
-4.0713441e-02
-6.7079031e-02
-9.6285574e-02
-1.0320885e-01
-5.6979509e-02
4.1613860e-02
1.3715002e-01
1.5777222e-01
9.7089405e-02
1.1585853e-02
-4.3660876e-02
-3.9839866e-02
-7.7478321e-03
-5.3474126e-03
-1.6938801e-02
4.2094633e-03
6.4276397e-02
1.0296171e-01
4.4506008e-02
-8.0968198e-02
-1.9291760e-01
-2.6136437e-01
-2.8637282e-01
-2.6719308e-01
-2.0019230e-01
-9.3893674e-02
1.8434565e-02
1.2711632e-01
2.6569977e-01
3.9980243e-01
4.2338445e-01
3.1818823e-01
1.6746266e-01
4.3022565e-02
-2.6672729e-02
-4.9882583e-02
-5.3770858e-02
-6.4136591e-02
-8.8909917e-02
-1.0312917e-01
-8.6161789e-02
-4.4234258e-02
-9.6157689e-03
-1.6653815e-02
-5.1171965e-02
-7.3876631e-02
-7.3595118e-02
-5.7364428e-02
-2.6340342e-02
1.7301071e-02
5.8267098e-02
6.5377039e-02
3.0247521e-02
-8.9342643e-03
-2.4697284e-02
-3.3538708e-02
-5.8261407e-02
-8.4713715e-02
-7.8538529e-02
-3.0365439e-02
4.1017425e-02
1.1272197e-01
1.4519363e-01
9.2897407e-02
-1.2509660e-02
-9.3101998e-02
-1.2237868e-01
-1.0120198e-01
-2.9288359e-02
7.2642544e-02
1.6108345e-01
1.8573371e-01
1.4382332e-01
8.5594312e-02
4.3728810e-02
1.6148464e-02
-1.9388501e-02
-7.9340361e-02
-1.3738728e-01
-1.6117138e-01
-1.5167041e-01
-1.1774336e-01
-7.9679178e-02
-6.1882639e-02
-5.1683377e-02
-1.7897186e-02
5.1958720e-02
1.4707865e-01
2.3313877e-01
2.7025920e-01
2.4230230e-01
1.6808262e-01
9.4201147e-02
5.1519840e-02
3.5813839e-02
1.9432748e-02
-2.8485613e-02
-1.0023552e-01
-1.6633831e-01
-2.1168181e-01
-2.2732207e-01
-2.1591353e-01
-1.9880084e-01
-1.8814405e-01
-1.8039704e-01
-1.6794143e-01
-1.2592626e-01
-2.8485850e-02
9.7046319e-02
1.8292959e-01
2.3162539e-01
3.2979375e-01
4.6126095e-01
4.8119763e-01
3.3155804e-01
9.8812496e-02
-1.0545039e-01
-2.3034434e-01
-2.8659561e-01
-3.1128233e-01
-3.2717546e-01
-3.3050570e-01
-3.2820452e-01
-3.3221832e-01
-3.1274585e-01
-2.2142279e-01
-4.2062132e-02
1.7291891e-01
3.5166701e-01
4.6619449e-01
4.8070376e-01
3.9880141e-01
2.8386072e-01
1.5309045e-01
5.9638705e-03
-1.2429427e-01
-2.0215783e-01
-2.1028791e-01
-1.5016555e-01
-4.1830949e-02
6.4959901e-02
1.0016845e-01
5.4112499e-02
2.3126507e-04
-4.7946341e-03
4.0682035e-02
8.6526947e-02
8.4332473e-02
4.4020550e-02
-1.0096250e-02
-4.5474996e-02
-4.0695257e-02
-2.4754144e-02
-3.3522414e-02
-6.0052205e-02
-7.8627115e-02
-7.1368409e-02
-3.6582926e-02
-8.7762424e-03
-1.4960752e-02
-2.8788374e-02
-2.5226285e-02
-1.0999707e-02
1.0848060e-02
4.2194163e-02
5.9403065e-02
3.3828691e-02
-1.7004852e-02
-6.3093763e-02
-9.9651036e-02
-1.2618163e-01
-1.4420212e-01
-1.5319617e-01
-1.3579353e-01
-7.0999469e-02
3.0606844e-02
1.0778865e-01
1.5310921e-01
2.4688221e-01
3.7057426e-01
4.0060913e-01
2.7673248e-01
6.8827372e-02
-9.4989783e-02
-1.6645635e-01
-1.8517984e-01
-1.9408758e-01
-1.8513789e-01
-1.2107452e-01
-2.9412675e-03
1.0052220e-01
1.1204405e-01
3.9798018e-02
-4.7937685e-02
-1.0670135e-01
-1.2599798e-01
-1.0135265e-01
-2.9802488e-02
4.5433884e-02
5.3011668e-02
4.2125958e-03
-2.7936383e-02
-2.2537909e-02
-4.2607627e-03
1.0437876e-02
1.7779538e-02
2.2992789e-02
2.9115368e-02
2.8769224e-02
2.3493844e-02
2.0202434e-02
1.8779728e-02
1.3440421e-02
-3.2012270e-03
-1.9164577e-02
-2.5340362e-02
-3.5564691e-02
-5.4530437e-02
-6.7045502e-02
-6.0576062e-02
-3.7040293e-02
4.8170788e-03
4.5175451e-02
4.4263821e-02
1.4082352e-02
-1.1526310e-02
-2.7631171e-02
-3.2980727e-02
-3.4014300e-02
-3.4396167e-02
-3.4639976e-02
-4.0898063e-02
-3.6663753e-02
-1.1075246e-02
3.4869268e-02
1.0484161e-01
1.6890445e-01
1.7769956e-01
1.3086081e-01
7.7696853e-02
5.9698671e-02
8.5771920e-02
1.1956788e-01
1.0530847e-01
4.9202417e-02
1.7642743e-03
-2.3052074e-02
-4.3524796e-02
-6.8694053e-02
-9.6546119e-02
-1.2697671e-01
-1.5417398e-01
-1.6614152e-01
-1.4611621e-01
-8.1291138e-02
1.8742187e-02
1.0464188e-01
1.1846748e-01
7.4731385e-02
3.5286944e-02
2.6808006e-02
5.7209011e-03
-6.8281871e-02
-1.4938520e-01
-1.9318698e-01
-2.0179571e-01
-1.8229597e-01
-1.3435452e-01
-4.5682960e-02
8.7814187e-02
2.1794756e-01
2.2877932e-01
9.3417237e-02
-5.9182550e-02
-1.4227073e-01
-1.6789003e-01
-1.5523866e-01
-8.2945033e-02
7.7521599e-02
2.6584191e-01
3.4782060e-01
2.6621050e-01
1.1336087e-01
7.2896867e-03
-2.3125600e-02
-1.7610795e-02
-2.1198350e-02
-4.7505330e-02
-8.4166871e-02
-1.1026719e-01
-1.1357869e-01
-8.0053340e-02
-2.0870095e-02
7.5721824e-03
-1.3640392e-02
-5.3997199e-02
-8.7046777e-02
-8.4491930e-02
-1.3585154e-02
1.1682991e-01
2.2895941e-01
2.3736266e-01
1.6210149e-01
1.0253029e-01
9.5461836e-02
1.0244955e-01
7.3548794e-02
-6.0748616e-03
-8.9807087e-02
-1.2675146e-01
-1.1572124e-01
-7.6967982e-02
-4.1306963e-02
-4.4896145e-02
-8.4083839e-02
-1.2580440e-01
-1.5040845e-01
-1.4745963e-01
-1.0955749e-01
-5.1049576e-02
-5.9432441e-03
1.6034373e-02
2.9712172e-02
3.6007955e-02
4.2173771e-02
5.7988999e-02
8.9783008e-02
1.5513804e-01
2.3805476e-01
2.8788494e-01
2.5146582e-01
1.1736344e-01
-4.3281709e-02
-1.5291652e-01
-1.9136542e-01
-1.7333144e-01
-1.2392448e-01
-6.2995222e-02
-1.8651451e-02
-1.0990004e-02
-1.5062184e-02
-3.0680283e-03
1.2287704e-02
6.8898407e-03
-1.4934777e-02
-3.6203901e-02
-5.3628621e-02
-6.2559958e-02
-5.4992864e-02
-3.4595718e-02
-2.4170889e-04
7.3447812e-02
1.5472712e-01
1.5208464e-01
7.3905864e-02
6.7308901e-03
-5.4186908e-03
4.1498007e-02
9.9810025e-02
8.9766946e-02
1.4561546e-02
-5.7160054e-02
-1.0270572e-01
-1.2858653e-01
-1.2108777e-01
-7.4856064e-02
-8.5294533e-03
3.6894733e-02
3.1016415e-02
7.9214430e-03
3.6396674e-03
-4.2975441e-03
-3.3524128e-02
-5.4480512e-02
-4.0517895e-02
3.4549292e-03
4.8016705e-02
5.3446010e-02
2.1178214e-02
-7.7947407e-03
-1.6818342e-02
-1.2267269e-02
-6.8619225e-03
-1.4124493e-02
-2.0422134e-02
-5.2710224e-03
2.4254844e-02
3.3785222e-02
-1.3121233e-03
-6.0090972e-02
-1.0678127e-01
-1.2591135e-01
-1.2273732e-01
-1.0788826e-01
-7.1750418e-02
1.5318036e-03
7.9380574e-02
8.7572895e-02
1.1254183e-02
-7.4796210e-02
-9.5639738e-02
-6.9247597e-02
-5.6994555e-02
-4.4935622e-02
1.3746365e-02
1.2856731e-01
2.7475617e-01
3.6672830e-01
3.2217175e-01
1.8780987e-01
4.5744149e-02
-7.7528249e-02
-1.5861442e-01
-1.8779734e-01
-1.6900320e-01
-1.2238108e-01
-8.4376957e-02
-5.5514423e-02
-9.0991410e-03
6.0627648e-02
1.2669612e-01
1.4640087e-01
1.2007977e-01
1.0122521e-01
1.2874428e-01
1.8700539e-01
1.8659921e-01
8.5598274e-02
-2.6079977e-02
-9.0777422e-02
-1.3152590e-01
-1.6557055e-01
-1.8948767e-01
-1.9457488e-01
-1.6984497e-01
-1.1642939e-01
-6.0862042e-02
-3.0180248e-02
-3.1940475e-02
-4.2311547e-02
-2.5409536e-02
-7.8142795e-04
-4.0704469e-03
-2.3439559e-03
4.4179747e-02
1.0912372e-01
1.1348009e-01
2.6797738e-02
-7.7955826e-02
-1.2507515e-01
-9.0995945e-02
-2.6885915e-02
-1.1524785e-02
-2.8671964e-02
-2.3671248e-02
-3.2619454e-03
6.9146675e-03
2.2558448e-02
7.5670165e-02
1.6258291e-01
2.3387825e-01
2.2207943e-01
1.2301700e-01
2.3993792e-02
-1.6613934e-02
-3.3433044e-02
-7.4902627e-02
-1.2766604e-01
-1.5091897e-01
-1.3202528e-01
-8.5997078e-02
-2.3518806e-02
3.8332803e-02
5.1927198e-02
2.3012843e-02
8.0003050e-03
2.2831979e-02
5.5330098e-02
8.5925750e-02
8.8153403e-02
5.0784623e-02
-3.7665914e-03
-3.4806862e-02
-3.3912563e-02
-1.0502406e-02
2.9215736e-02
5.4970588e-02
3.9621666e-02
3.2365474e-03
-1.6335726e-02
-6.9888319e-03
2.9286860e-02
7.2732067e-02
8.4150677e-02
5.9293524e-02
3.1713148e-02
1.7537402e-02
6.7351839e-03
-1.3932430e-02
-4.6153016e-02
-7.6559225e-02
-8.7300025e-02
-8.1910712e-02
-7.7646228e-02
-7.6362313e-02
-7.5474408e-02
-6.8818782e-02
-4.2894654e-02
6.8989561e-03
7.8246988e-02
1.5688160e-01
1.8073449e-01
1.1511336e-01
2.0867322e-02
-5.1925294e-02
-9.9227086e-02
-1.2541369e-01
-1.5102089e-01
-1.9616346e-01
-2.4637493e-01
-2.7098803e-01
-2.6082737e-01
-2.1915239e-01
-1.3942938e-01
-6.2498820e-03
1.7111424e-01
2.9517907e-01
3.0015279e-01
2.7808079e-01
2.7517219e-01
2.0300579e-01
2.2629007e-02
