-1.9901748e-01
-4.1157288e-01
-5.6140342e-01
-6.5460812e-01
-7.1898196e-01
-7.5976684e-01
-7.8169852e-01
-7.6891919e-01
-7.2448756e-01
-6.7242910e-01
-6.1845795e-01
-5.6675263e-01
-4.9703811e-01
-4.1058420e-01
-3.3181129e-01
-2.6503835e-01
-2.1287554e-01
-1.5269799e-01
-8.5354619e-02
-3.3942376e-02
3.5317911e-03
2.8112988e-02
6.0025205e-02
9.9305958e-02
1.2758551e-01
1.4685103e-01
1.5538070e-01
1.6679906e-01
1.7398365e-01
1.6017882e-01
1.3232996e-01
9.1106143e-02
5.5750470e-02
2.9015988e-02
-5.9678417e-03
-5.0725715e-02
-1.0619612e-01
-1.5082563e-01
-1.6661103e-01
-1.5750702e-01
-1.4453830e-01
-1.4679242e-01
-1.4406067e-01
-1.2297416e-01
-8.9067740e-02
-5.7413020e-02
-4.3907504e-02
-3.1573101e-02
-1.7729291e-02
-1.2597329e-02
-1.5695473e-02
-2.9984817e-02
-4.0185506e-02
-3.6514980e-02
-1.8881150e-02
3.4091280e-03
1.6787214e-02
1.7936164e-02
4.3225252e-03
9.1518467e-04
1.0228145e-02
1.1503830e-02
1.1555982e-02
1.4059909e-02
2.9792537e-02
5.3616234e-02
6.7228735e-02
7.0056026e-02
5.8391233e-02
5.2158324e-02
5.5271558e-02
4.9854657e-02
3.7045525e-02
1.6531040e-02
9.7476961e-03
1.8125330e-02
1.9929184e-02
1.3839402e-02
1.4492351e-03
6.1157404e-03
2.4892517e-02
3.2436046e-02
2.9101208e-02
1.5630737e-02
1.2685095e-02
2.0036587e-02
1.5542570e-02
-4.6007056e-05
-2.3139328e-02
-3.0626838e-02
-2.1814986e-02
-1.7484615e-02
-2.0308217e-02
-3.1729231e-02
-2.9943945e-02
-1.5244816e-02
-8.7274827e-03
-1.0982288e-02
-2.1991793e-02
-1.9720187e-02
-3.5753817e-03
5.6607782e-03
6.8000846e-03
-1.5254001e-03
2.2279514e-03
1.8436433e-02
2.4883619e-02
2.2866506e-02
1.4741369e-02
2.1541510e-02
4.1255088e-02
5.0161653e-02
4.7691168e-02
3.5320929e-02
3.5713226e-02
4.6073706e-02
4.2515362e-02
2.8556558e-02
7.3936491e-03
3.7756236e-04
1.0999178e-02
2.0193649e-02
2.2805405e-02
1.5350747e-02
1.6431567e-02
2.4286088e-02
1.9954259e-02
2.2373772e-03
-3.0507998e-02
-5.7476409e-02
-6.6224353e-02
-6.2831379e-02
-5.9643913e-02
-7.0826162e-02
-7.7239225e-02
-6.6333277e-02
-4.4177402e-02
-2.4228618e-02
-2.1185240e-02
-1.6100899e-02
-4.8028342e-03
-1.7351564e-03
-1.0899410e-02
-3.6964227e-02
-6.3091656e-02
-7.3358287e-02
-6.3724968e-02
-4.7942715e-02
-4.4936031e-02
-4.6026597e-02
-4.1836804e-02
-2.0351485e-02
1.0731871e-02
3.2190730e-02
4.1302925e-02
3.4532584e-02
3.4016313e-02
4.2931553e-02
4.2029927e-02
3.4005691e-02
2.2832410e-02
2.8628001e-02
4.8432916e-02
6.0432201e-02
6.1970753e-02
5.0902655e-02
4.9305856e-02
5.8454772e-02
5.8325055e-02
4.4867354e-02
1.2795213e-02
-1.3279974e-02
-2.8505748e-02
-5.2641145e-02
-7.1514739e-02
-7.2940394e-02
-5.0435613e-02
-1.6607675e-02
6.9817848e-03
1.7382134e-02
1.3130490e-02
1.7794248e-02
3.4752274e-02
4.4369241e-02
4.4041347e-02
3.2828319e-02
3.4431201e-02
4.7233718e-02
4.8121067e-02
3.8609962e-02
1.8699312e-02
8.1128083e-03
7.9657381e-03
-2.7540343e-03
-2.4839176e-02
-5.7050653e-02
-7.8243492e-02
-8.5131619e-02
-9.4823337e-02
-1.0023663e-01
-9.5283586e-02
-7.0583851e-02
-3.6676509e-02
-1.5734726e-02
-7.9547714e-03
-1.1620809e-02
-5.4983417e-03
1.1395011e-02
1.9418131e-02
1.8122717e-02
7.2973843e-03
8.4223262e-03
2.3345941e-02
3.0993182e-02
2.9926146e-02
2.2722934e-02
2.9409352e-02
4.5504187e-02
5.0052200e-02
4.4917428e-02
3.1839880e-02
2.9767960e-02
3.9949501e-02
4.7814198e-02
5.4857354e-02
6.0020775e-02
6.9591151e-02
6.7664814e-02
4.1389793e-02
2.4254986e-03
-4.6940884e-02
-8.9901053e-02
-1.1267077e-01
-1.1348410e-01
-1.0719487e-01
-1.1198225e-01
-1.1388034e-01
-1.0225368e-01
-7.0660853e-02
-3.0200118e-02
-9.4152645e-04
2.3099575e-02
3.5934490e-02
4.0497634e-02
4.3028507e-02
3.3899907e-02
1.7538732e-02
1.4647679e-03
4.2641126e-03
1.9736104e-02
2.5387838e-02
2.6182369e-02
1.7964535e-02
8.2556832e-03
3.2398322e-03
-8.0182029e-03
-1.5175748e-02
-7.8469285e-03
2.3277379e-02
6.8564421e-02
1.0829368e-01
1.3932405e-01
1.4539811e-01
1.3524875e-01
1.2424852e-01
1.0543301e-01
7.6727010e-02
3.6210119e-02
5.5513000e-03
-1.5339831e-02
-4.7930024e-02
-8.9745174e-02
-1.3756133e-01
-1.7068625e-01
-1.7514658e-01
-1.5750094e-01
-1.3454155e-01
-1.1956125e-01
-8.9143932e-02
-4.7012684e-02
-1.8291765e-02
-3.5892205e-03
-1.4101361e-03
1.1548862e-02
3.7274099e-02
5.6496249e-02
6.7634960e-02
6.7346126e-02
7.5960574e-02
9.4196008e-02
1.0050314e-01
9.3136331e-02
7.2593364e-02
6.1813869e-02
6.0346741e-02
4.6754734e-02
2.1122785e-02
-1.7079056e-02
-4.7572467e-02
-5.4263997e-02
-4.0584964e-02
-2.3881138e-02
-2.3127806e-02
-1.8881903e-02
-7.3855445e-03
-4.0690413e-03
-1.3719274e-02
-4.1638925e-02
-6.6509279e-02
-7.1706264e-02
-5.9504984e-02
-4.2986175e-02
-3.5319939e-02
-1.5927996e-02
1.4580939e-02
3.9680344e-02
5.9483967e-02
6.9858192e-02
8.3228856e-02
9.3078241e-02
8.3598514e-02
5.7243704e-02
1.2461856e-02
-3.0210593e-02
-5.1392704e-02
-5.0314431e-02
-4.5381926e-02
-5.6959365e-02
-6.7170309e-02
-6.6584775e-02
-6.2212367e-02
-6.2231155e-02
-7.6603901e-02
-8.9409157e-02
-9.1548225e-02
-8.5241389e-02
-8.0244618e-02
-9.0235080e-02
-9.6946179e-02
-8.2318173e-02
-4.2141628e-02
6.3486089e-03
4.2869366e-02
6.6668627e-02
7.1224399e-02
7.4946061e-02
8.6125562e-02
8.8791634e-02
7.9723835e-02
5.7487800e-02
4.4658168e-02
4.3739225e-02
3.5972815e-02
2.1247731e-02
6.1203310e-04
-3.0116589e-03
8.9217099e-03
1.2978506e-02
7.4756194e-03
-8.3289623e-03
-1.2405581e-02
-3.8204925e-03
-3.3242494e-03
-9.4738835e-03
-2.2399937e-02
-2.3433880e-02
-1.2143042e-02
-8.2194406e-03
-9.6004678e-03
-1.3403856e-02
8.3950239e-04
3.3152066e-02
6.2824866e-02
8.7574965e-02
9.4056166e-02
8.9749683e-02
8.6079573e-02
7.4844486e-02
5.5307910e-02
2.7511963e-02
1.4319217e-02
1.5840491e-02
1.0495015e-02
-3.2200100e-04
-1.6238662e-02
-1.8161504e-02
-6.9781518e-03
-2.9528066e-03
-7.0209543e-03
-2.1594774e-02
-2.5918892e-02
-1.6809535e-02
-1.3787611e-02
-1.9447169e-02
-3.4432247e-02
-3.5761725e-02
-2.2093733e-02
-1.4805760e-02
-1.7013920e-02
-2.9764569e-02
-3.1150382e-02
-2.3666583e-02
-3.0706020e-02
-5.2210630e-02
-8.6745535e-02
-1.0939822e-01
-1.1336664e-01
-1.1707872e-01
-1.2393682e-01
-1.3532538e-01
-1.3271238e-01
-1.1708019e-01
-1.0633268e-01
-9.9929191e-02
-9.7850620e-02
-8.1027877e-02
-4.8349627e-02
-1.3653632e-02
2.5246778e-02
6.7464219e-02
1.1298989e-01
1.4228298e-01
1.5615565e-01
1.7521488e-01
1.9294742e-01
2.0125606e-01
1.8772473e-01
1.5850997e-01
1.3295678e-01
1.1456794e-01
1.0141021e-01
6.9789906e-02
2.2942688e-02
-1.4223858e-02
-4.0324468e-02
-5.9552919e-02
-9.8301094e-02
-1.5752756e-01
-2.1287080e-01
-2.6045904e-01
-3.0064935e-01
-3.3547164e-01
-3.4281785e-01
-3.1689119e-01
-2.7430715e-01
-2.1512038e-01
-1.5875992e-01
-1.0567418e-01
-3.5293229e-02
4.8495297e-02
1.4079141e-01
2.3251797e-01
3.1317771e-01
3.8243099e-01
4.3839652e-01
4.7827432e-01
5.0422844e-01
5.1687668e-01
5.1301024e-01
4.9198803e-01
4.5418276e-01
4.0064585e-01
3.2668688e-01
2.2624192e-01
1.2228685e-01
3.7316558e-02
-4.1412930e-02
-1.0797922e-01
-1.5441415e-01
-1.9057824e-01
-2.2012455e-01
-2.5016563e-01
-2.6187111e-01
-2.5276518e-01
-2.4365241e-01
-2.3564647e-01
-2.3019453e-01
-2.0925517e-01
-1.7277407e-01
-1.4091599e-01
-1.1728893e-01
-1.0408808e-01
-8.1809338e-02
-5.1414300e-02
-3.1504760e-02
-2.2236405e-02
-2.5034739e-02
-1.7693541e-02
1.9902939e-03
1.2219663e-02
1.2052089e-02
3.3306347e-03
6.8758366e-03
2.1813658e-02
2.6420706e-02
2.0439233e-02
5.6708006e-03
2.4934826e-03
7.0658261e-03
-4.1962315e-03
-2.9795660e-02
-6.5850723e-02
-8.8827277e-02
-8.2956532e-02
-5.6034924e-02
-2.5115936e-02
-3.0825710e-03
2.8913946e-02
6.2826017e-02
7.6422250e-02
7.3068708e-02
5.3658265e-02
3.3454738e-02
1.7569615e-02
2.5082828e-03
-1.5660495e-02
-4.6966644e-02
-7.0364578e-02
-7.0995177e-02
-5.3582804e-02
-3.1834614e-02
-2.0292198e-02
-2.0883384e-03
1.9135298e-02
2.3740932e-02
1.2173693e-02
-1.3327485e-02
-3.8496713e-02
-5.7686235e-02
-6.7355059e-02
-7.1107080e-02
-8.1273535e-02
-7.7553536e-02
-5.1178081e-02
-1.3328277e-02
2.6411594e-02
5.9934802e-02
8.6635165e-02
9.2950263e-02
8.8282170e-02
8.6090146e-02
7.8755239e-02
6.3151193e-02
3.6521026e-02
2.2969259e-02
2.5364745e-02
2.3335293e-02
1.6231013e-02
4.3129302e-03
9.6375589e-03
3.1329004e-02
4.7208903e-02
5.2399613e-02
3.9475863e-02
3.0068041e-02
3.0227398e-02
2.1614187e-02
4.3527023e-03
-2.1392932e-02
-3.4138736e-02
-3.1444644e-02
-3.1613333e-02
-3.9115373e-02
-5.5637388e-02
-5.4732925e-02
-3.6404992e-02
-2.3877233e-02
-1.9466087e-02
-2.5390153e-02
-2.0315437e-02
-3.4283470e-03
4.7176403e-03
4.2402503e-03
-4.4365848e-03
-3.5973058e-03
4.7602285e-03
4.3249743e-03
-2.8672613e-03
-1.8092860e-02
-2.0919190e-02
-1.0459867e-02
-6.1327483e-03
-8.7217270e-03
-1.9030160e-02
-1.5939235e-02
-5.3769829e-04
4.3536995e-03
-1.0133026e-03
-1.4661471e-02
-1.5621693e-02
-3.4519418e-03
3.6328757e-03
6.5896401e-03
5.7529912e-03
2.1852326e-02
5.0061361e-02
6.4866342e-02
6.6600313e-02
5.6559321e-02
5.5225276e-02
6.0316296e-02
5.0241178e-02
2.9272071e-02
8.5457911e-04
-1.4062824e-02
-1.4057944e-02
-1.9157891e-02
-3.0536376e-02
-4.9140819e-02
-5.8460671e-02
-5.7970836e-02
-6.1774657e-02
-7.1089885e-02
-8.9673530e-02
-9.7598337e-02
-9.5100516e-02
-1.0185732e-01
-1.1565289e-01
-1.3345357e-01
-1.3666925e-01
-1.1146585e-01
-5.8002206e-02
1.0376128e-02
7.6557416e-02
1.3763195e-01
1.7057574e-01
1.7592686e-01
1.7737396e-01
1.7795983e-01
1.7489070e-01
1.5079391e-01
1.1503767e-01
8.4875148e-02
5.4656489e-02
2.4063676e-02
-7.6484967e-03
-2.0220081e-02
-1.4182416e-02
-1.0080778e-02
-1.1476645e-02
-2.5605418e-02
-3.2060167e-02
-2.5465864e-02
-2.4792024e-02
-3.1216438e-02
-4.6077323e-02
-4.9271610e-02
-4.0436140e-02
-3.9963470e-02
-4.5816622e-02
-5.5191452e-02
-4.7807687e-02
-2.5508353e-02
-1.0157745e-02
-4.6220280e-03
-1.1248726e-02
-8.2346214e-03
5.3766741e-03
9.1950069e-03
3.1380448e-03
-1.2446902e-02
-1.5299785e-02
-4.0890988e-03
2.5754720e-03
4.0415281e-03
-2.6266590e-03
2.8167194e-03
1.9929496e-02
2.7107516e-02
2.3116379e-02
7.1486309e-03
2.3233844e-03
9.2100745e-03
5.4135669e-03
-6.0482492e-03
-2.1027627e-02
-1.9232266e-02
-1.8494206e-03
9.5014870e-03
1.1151636e-02
1.1148607e-03
1.8231379e-03
1.3137224e-02
1.3892191e-02
5.7039909e-03
-1.0044268e-02
-1.2123780e-02
-2.1220725e-03
-2.0259551e-03
-1.0179704e-02
-2.5531232e-02
-2.5395293e-02
-8.5238716e-03
3.2056671e-04
-1.1990593e-03
-1.1338220e-02
-8.2429228e-03
7.1556952e-03
1.2467838e-02
8.7419588e-03
-1.6015742e-03
1.6004585e-03
1.6939846e-02
2.4297703e-02
2.4633789e-02
1.8707373e-02
2.7875538e-02
4.8698093e-02
5.6557307e-02
5.4416495e-02
4.4583173e-02
4.3972226e-02
5.0674631e-02
4.7093451e-02
3.4517256e-02
1.2976689e-02
3.3827714e-03
4.0164418e-03
-5.4424464e-03
-2.4256178e-02
-5.3089571e-02
-7.2932257e-02
-7.3867265e-02
-6.4370745e-02
-5.5222603e-02
-5.7246285e-02
-6.4231056e-02
-7.1543373e-02
-6.6095180e-02
-5.2908761e-02
-4.9986066e-02
-4.5558368e-02
-3.6373571e-02
-2.0321097e-02
1.5723298e-04
1.2456230e-02
1.7972146e-02
1.3279103e-02
9.9390588e-03
1.1447510e-02
5.1989128e-03
-1.0352858e-02
-3.4392360e-02
-4.0770211e-02
-2.9041498e-02
-2.2267330e-02
-2.0263530e-02
-2.3383125e-02
-1.4154871e-02
1.5082871e-02
5.4124067e-02
9.6034427e-02
1.2445070e-01
1.5108412e-01
1.8418055e-01
2.1134268e-01
2.3056147e-01
2.2424282e-01
1.9830495e-01
1.7038081e-01
1.3686369e-01
9.7522723e-02
5.0948162e-02
1.6536791e-02
-7.0069698e-03
-4.2568551e-02
-9.2076546e-02
-1.5774441e-01
-2.2375688e-01
-2.7814261e-01
-3.2494673e-01
-3.5631284e-01
-3.6444574e-01
-3.4649594e-01
-3.0320371e-01
-2.3670979e-01
-1.6377817e-01
-1.0174607e-01
-3.2875208e-02
4.2653142e-02
1.0618381e-01
1.5773230e-01
1.8720888e-01
2.0395829e-01
2.1911288e-01
2.2492659e-01
2.2114899e-01
2.0856229e-01
2.0944049e-01
2.2389087e-01
2.3193992e-01
2.3249797e-01
2.2250084e-01
2.2010990e-01
2.2604652e-01
2.2025455e-01
2.0000862e-01
1.6271393e-01
1.2431878e-01
9.0152404e-02
5.0685054e-02
-7.1446909e-04
-7.3756316e-02
-1.4849469e-01
-2.0406054e-01
-2.4240402e-01
-2.6630805e-01
-2.7725283e-01
-2.7734389e-01
-2.6751250e-01
-2.4946926e-01
-2.2607549e-01
-1.9731239e-01
-1.6473692e-01
-1.3002240e-01
-9.2536238e-02
-6.7114896e-02
-6.7380677e-02
-7.7090029e-02
-7.9455546e-02
-7.2288626e-02
-5.9030336e-02
-4.2813252e-02
-2.0066478e-02
5.8714148e-03
2.7269541e-02
3.2871559e-02
1.3432188e-02
-1.1395257e-02
-1.9496141e-02
-8.9297276e-03
-1.7636885e-03
-1.7692986e-02
-3.4622999e-02
-3.2455809e-02
-1.3005569e-02
2.8383343e-03
-3.7256755e-03
-9.3418703e-03
1.5119379e-03
2.0763773e-02
3.3045566e-02
2.4616514e-02
1.7220663e-02
3.3003906e-02
7.4381130e-02
1.2180400e-01
1.5346730e-01
1.7868707e-01
2.0083942e-01
2.2378474e-01
2.4316788e-01
2.4354830e-01
2.3194505e-01
2.1499845e-01
2.0452236e-01
1.9355742e-01
1.6200245e-01
1.2363939e-01
9.1274167e-02
6.8695493e-02
4.0676757e-02
-1.2750680e-02
-7.3264557e-02
-1.2416282e-01
-1.6604782e-01
-2.0158602e-01
-2.3427813e-01
-2.6139031e-01
-2.8035056e-01
-2.9240085e-01
-2.9874560e-01
-2.9898028e-01
-2.9233573e-01
-2.8129390e-01
-2.6940830e-01
-2.5624247e-01
-2.3924110e-01
-2.1584749e-01
-1.8315267e-01
-1.3862266e-01
-9.0598485e-02
-4.7121303e-02
-5.4942919e-03
3.6946680e-02
9.0698663e-02
1.4480486e-01
1.7974361e-01
1.9493442e-01
1.9090437e-01
1.9266863e-01
2.0368798e-01
2.0362643e-01
1.8996964e-01
1.6132182e-01
1.4117602e-01
1.3171788e-01
1.1180341e-01
8.4085215e-02
5.2320599e-02
3.5921897e-02
3.3172084e-02
2.3300401e-02
6.2714704e-03
-1.4973157e-02
-1.8099414e-02
-6.9676538e-03
-4.7677684e-03
-1.1280740e-02
-2.6678929e-02
-2.9243161e-02
-1.7370832e-02
-1.1838291e-02
-1.3071076e-02
-2.1386309e-02
-1.7474838e-02
-2.4366873e-03
2.8068664e-03
-6.5616530e-04
-1.0335893e-02
-5.5833304e-03
1.0821986e-02
1.8113332e-02
1.7057208e-02
6.0493858e-03
6.9813259e-03
2.2926535e-02
3.1902613e-02
3.0601295e-02
1.8748238e-02
1.9200470e-02
3.1267553e-02
3.2156317e-02
2.3007721e-02
5.4314093e-03
-6.8817011e-04
6.0118302e-03
7.7207333e-03
2.5644929e-03
-1.1243332e-02
-1.2001597e-02
2.0618859e-03
1.0924500e-02
1.0428699e-02
-2.6985989e-03
-6.8490240e-03
2.9490683e-03
1.0938145e-02
1.3417627e-02
6.2046195e-03
8.5230949e-03
2.7148937e-02
5.1035554e-02
7.2695341e-02
8.3073942e-02
1.0032056e-01
1.1899169e-01
1.1694735e-01
9.6652823e-02
5.7675458e-02
2.0056048e-02
1.0957675e-03
-2.7512505e-03
-9.2267317e-03
-3.6094190e-02
-6.2369595e-02
-6.9267322e-02
-5.8948730e-02
-5.2154187e-02
-6.8866738e-02
-8.8363357e-02
-9.2071693e-02
-8.1084870e-02
-7.4847636e-02
-9.2679024e-02
-1.1393314e-01
-1.2085639e-01
-1.1420179e-01
-1.0929538e-01
-1.2247718e-01
-1.3767896e-01
-1.3848802e-01
-1.2118216e-01
-1.0192680e-01
-9.8802441e-02
-1.0031965e-01
-9.6936474e-02
-7.9890741e-02
-5.7194855e-02
-4.6800386e-02
-3.0559968e-02
6.7999379e-03
6.3781619e-02
1.2607602e-01
1.7928329e-01
2.2146412e-01
2.3393065e-01
2.2463718e-01
2.1078258e-01
1.8332805e-01
1.3787756e-01
7.9518636e-02
3.7008961e-02
1.0249816e-02
-2.2316264e-02
-5.1663662e-02
-6.9336397e-02
-6.2837792e-02
-4.2392400e-02
-3.0336706e-02
-2.8010400e-02
-3.5850858e-02
-3.0827390e-02
-1.4428199e-02
-9.9055526e-03
-1.6819037e-02
-3.2947648e-02
-3.4952740e-02
-2.1778653e-02
-1.3349756e-02
-1.1149567e-02
-1.6486252e-02
-7.9387015e-03
1.4816524e-02
3.0594454e-02
3.8110040e-02
3.4243664e-02
3.7950303e-02
5.1547094e-02
5.5782021e-02
4.8557922e-02
2.8631526e-02
1.9950223e-02
2.4747241e-02
2.2227396e-02
1.2081083e-02
-7.6142533e-03
-1.5369892e-02
-7.7604031e-03
-5.6074756e-03
-1.3095823e-02
-3.2261254e-02
-3.9187253e-02
-3.1963838e-02
-3.1866758e-02
-3.7250767e-02
-4.6639268e-02
-4.0017056e-02
-1.5900463e-02
3.6058721e-03
1.2244807e-02
8.2974800e-03
1.3418838e-02
2.7327086e-02
2.9494351e-02
2.0871821e-02
3.0361379e-03
-1.1126071e-03
9.7006721e-03
1.4408401e-02
1.2737859e-02
5.3478040e-03
1.3760154e-02
3.5482671e-02
4.5671559e-02
4.3967140e-02
3.1343990e-02
2.9272881e-02
3.7592679e-02
3.4151259e-02
2.1313856e-02
2.0151834e-03
-3.3101696e-03
5.5673222e-03
8.4180247e-03
4.6736704e-03
-7.2923316e-03
-7.7942884e-03
4.9356769e-03
1.0103456e-02
2.8246792e-03
-1.8399505e-02
-2.9651479e-02
-2.8688299e-02
-3.5677149e-02
-5.1233244e-02
-7.4436293e-02
-8.2444705e-02
-6.7372293e-02
-4.4709837e-02
-2.4336188e-02
-1.3937763e-02
4.9968559e-03
2.9726328e-02
4.0993783e-02
3.9780018e-02
2.5918547e-02
2.0714905e-02
2.9789512e-02
3.8495897e-02
4.2888850e-02
3.9045212e-02
4.6252201e-02
6.1184581e-02
6.2157065e-02
4.9663104e-02
2.4107327e-02
5.1253025e-03
-4.8501863e-03
-2.1749499e-02
-4.8783540e-02
-8.9866026e-02
-1.2400277e-01
-1.3093468e-01
-1.1123256e-01
-8.3499427e-02
-6.5702222e-02
-3.7259597e-02
1.5480211e-03
3.0322355e-02
4.8822998e-02
5.6513168e-02
6.3351157e-02
5.9420620e-02
3.4277274e-02
-2.2901766e-03
-5.0061980e-02
-9.1760081e-02
-1.1015726e-01
-1.0143467e-01
-8.2203888e-02
-7.2040575e-02
-5.0538324e-02
-1.7280860e-02
8.6177513e-03
2.4952431e-02
2.9081564e-02
2.6869782e-02
2.0209419e-02
1.8943552e-02
2.1411808e-02
1.2309604e-02
5.5983828e-03
8.9052375e-03
2.4181987e-02
4.4858889e-02
5.6739328e-02
7.4550280e-02
9.4105038e-02
9.5608051e-02
7.5622447e-02
3.9765352e-02
-9.8898240e-04
-4.2700701e-02
-6.6149094e-02
-7.2711337e-02
-8.2780856e-02
-8.6515180e-02
-7.4761679e-02
-3.8644764e-02
1.4755214e-02
6.7162119e-02
1.1468263e-01
1.3394391e-01
1.2667073e-01
1.1491584e-01
9.9781259e-02
8.2539462e-02
5.5272916e-02
3.0714442e-02
1.6263388e-02
-1.8661636e-03
-2.2372903e-02
-4.3439713e-02
-4.6463854e-02
-3.2484748e-02
-2.2502681e-02
-2.1585606e-02
-3.3860657e-02
-3.8234428e-02
-3.1162748e-02
-3.0327127e-02
-3.7384386e-02
-5.5013336e-02
-6.3417717e-02
-5.9902878e-02
-6.1741780e-02
-6.5831879e-02
-7.1056308e-02
-6.2895308e-02
-4.3150496e-02
-2.8666119e-02
-2.1031145e-02
-2.2586787e-02
-1.1040236e-02
1.4758173e-02
3.3328469e-02
4.3310508e-02
4.4232266e-02
5.3837517e-02
6.7778132e-02
6.8427933e-02
5.8466260e-02
3.7042961e-02
2.7624453e-02
3.1768351e-02
2.8043768e-02
1.7168263e-02
-1.1163155e-03
-7.6386102e-03
-1.6080370e-03
-2.7213225e-03
-1.0536463e-02
-2.5865552e-02
-3.0178105e-02
-2.0588573e-02
-1.5209570e-02
-1.5651247e-02
-2.1882341e-02
-1.4132895e-02
6.4584390e-03
2.0007444e-02
2.8454199e-02
3.2739041e-02
4.1614229e-02
4.6847287e-02
4.0605068e-02
3.0893293e-02
1.6233552e-02
1.6535739e-02
3.0032247e-02
3.5290295e-02
3.2015551e-02
2.0501877e-02
2.0550500e-02
2.9396353e-02
2.7070900e-02
1.5575014e-02
-6.0320226e-03
-1.6633942e-02
-1.4684685e-02
-2.1138318e-02
-3.4738178e-02
-5.3608235e-02
-5.7850331e-02
-4.8567212e-02
-4.7475057e-02
-5.4665663e-02
-6.9393261e-02
-7.0141692e-02
-5.4460727e-02
-4.2213600e-02
-3.7267436e-02
-4.3053665e-02
-3.7640814e-02
-1.9360806e-02
-9.1516266e-03
-7.4101444e-03
-1.2613601e-02
-2.9044587e-03
1.9111757e-02
3.0391637e-02
3.0259493e-02
1.9004161e-02
1.9798824e-02
3.3480777e-02
3.8386354e-02
3.5071907e-02
2.4468913e-02
2.8412223e-02
4.6292118e-02
5.5493746e-02
5.5666854e-02
4.7205249e-02
4.5807230e-02
4.5453630e-02
3.1093186e-02
1.1206164e-02
-1.2369015e-02
-2.0847306e-02
-1.5698671e-02
-1.7778687e-02
-2.6633904e-02
-4.0225741e-02
-3.8091993e-02
-2.2722447e-02
-1.4912297e-02
-1.2410482e-02
-1.5063074e-02
-4.8072471e-03
1.5784172e-02
2.5491934e-02
2.5612715e-02
1.7445067e-02
2.2574081e-02
3.7691785e-02
3.8939053e-02
3.0185808e-02
1.4053167e-02
2.1001195e-03
-2.5234498e-03
-1.5570651e-03
2.1098869e-03
-3.1003900e-03
4.8391950e-04
8.1648158e-03
-2.7237480e-03
-2.7004063e-02
-5.8466922e-02
-7.5259488e-02
-7.0334082e-02
-5.7378331e-02
-4.7962809e-02
-5.2256191e-02
-4.8803627e-02
-3.3156150e-02
-2.1006026e-02
-1.4415961e-02
-1.5494722e-02
-9.9344969e-03
-2.1876577e-03
-5.1675186e-03
-1.3766351e-02
-2.6850665e-02
-2.7714662e-02
-1.5739834e-02
-2.4708947e-03
8.6725538e-03
1.1232433e-02
2.3240829e-02
4.5061254e-02
6.3707629e-02
8.0379498e-02
9.2317634e-02
1.0840729e-01
1.2423952e-01
1.3795573e-01
1.5230227e-01
1.5851782e-01
1.6639982e-01
1.7567142e-01
1.8474878e-01
1.9457275e-01
1.9403958e-01
1.8680389e-01
1.6884231e-01
1.3908912e-01
1.0072105e-01
4.6610175e-02
-1.8417337e-02
-8.9107109e-02
-1.5261956e-01
-2.0069337e-01
-2.3876046e-01
-2.6514944e-01
-2.7731123e-01
-2.7322552e-01
-2.6086701e-01
-2.4952545e-01
-2.3329474e-01
-2.1170418e-01
-1.8605284e-01
-1.6194205e-01
-1.4837500e-01
-1.3829095e-01
-1.2869151e-01
-1.1594760e-01
-1.0133971e-01
-9.1889676e-02
-7.9413060e-02
-5.8305560e-02
-2.0772459e-02
2.2961191e-02
5.1885166e-02
7.6328757e-02
1.0262023e-01
1.3045291e-01
1.5268601e-01
1.5769503e-01
1.5301743e-01
1.3979673e-01
1.2761237e-01
1.1621580e-01
9.0425792e-02
6.2781507e-02
4.7147766e-02
5.2033102e-02
6.4007173e-02
6.3308719e-02
5.3137895e-02
2.9730090e-02
4.9904914e-03
-1.8679815e-02
-5.6237543e-02
-9.2225028e-02
-1.0901223e-01
-9.8709767e-02
-7.7602676e-02
-6.7240033e-02
-6.0934289e-02
-5.1119287e-02
-2.3708428e-02
1.3753558e-02
4.0331899e-02
5.3569848e-02
5.1675305e-02
5.7399014e-02
7.2903844e-02
7.7864366e-02
7.2054635e-02
5.5444215e-02
4.9289812e-02
5.5506737e-02
5.4390142e-02
4.4411515e-02
2.2748271e-02
9.0128667e-03
5.3484334e-03
-7.3791687e-03
-2.7028270e-02
-5.2933782e-02
-6.8536221e-02
-7.4026421e-02
-8.6497797e-02
-9.7824447e-02
-1.0024791e-01
-8.0302377e-02
-4.5961588e-02
-1.8419044e-02
-1.4120562e-03
2.1928478e-03
1.6290431e-02
4.1607398e-02
5.5617540e-02
6.0266070e-02
5.5962977e-02
6.2253853e-02
7.9281780e-02
8.6222350e-02
8.3533462e-02
6.7083868e-02
5.3297627e-02
4.5904147e-02
2.8205012e-02
2.0888354e-03
-3.0930069e-02
-5.0609827e-02
-5.8524125e-02
-7.4968618e-02
-8.7751759e-02
-8.6475880e-02
-6.3546112e-02
-3.0924833e-02
-8.0440484e-03
6.5671175e-03
1.2525000e-02
2.7857942e-02
5.2809970e-02
6.9093152e-02
7.4296831e-02
6.5850165e-02
6.7497030e-02
7.8790064e-02
7.5564342e-02
5.8699682e-02
3.0276644e-02
1.3045361e-02
8.8453368e-03
-3.6568700e-03
-2.5727684e-02
-5.7554903e-02
-8.1644366e-02
-9.9865321e-02
-1.2983879e-01
-1.5030157e-01
-1.4284342e-01
-1.0755951e-01
-6.3983085e-02
-3.2945430e-02
-1.5032199e-02
-9.9080153e-03
4.3579462e-03
2.7300500e-02
3.7214688e-02
3.4500159e-02
1.9054790e-02
1.3140904e-02
2.0574220e-02
2.2444875e-02
1.7839632e-02
4.9374477e-03
2.2204484e-03
1.0984105e-02
1.4040178e-02
1.0730436e-02
-4.1471307e-05
2.4556539e-03
1.7037250e-02
2.2861807e-02
2.0962964e-02
1.0672193e-02
1.0825895e-02
2.3556709e-02
3.0151281e-02
2.9236124e-02
2.0613594e-02
2.3834191e-02
3.7215319e-02
4.1061947e-02
3.5676977e-02
2.0009288e-02
1.5305665e-02
2.1979701e-02
1.9736035e-02
9.5261310e-03
-7.3768326e-03
-1.0868291e-02
-1.8179047e-03
7.9481445e-04
-5.1666491e-03
-2.2914092e-02
-3.2291214e-02
-3.0803195e-02
-3.4957673e-02
-4.1804891e-02
-4.9956743e-02
-4.4102409e-02
-2.6656024e-02
-1.5978576e-02
-1.3980670e-02
-2.0832974e-02
-1.5917281e-02
5.5000605e-04
9.4759029e-03
1.1210861e-02
4.9677485e-03
9.1890989e-03
2.7327474e-02
4.3687979e-02
5.2129887e-02
4.6865645e-02
4.9853437e-02
6.0816391e-02
5.8641837e-02
4.4649253e-02
2.1189934e-02
9.2826428e-03
4.7034632e-03
-1.4875439e-02
-3.8919166e-02
-5.7353353e-02
-5.6890245e-02
-4.3427369e-02
-3.5735679e-02
-3.5433961e-02
-4.2039255e-02
-3.3383665e-02
-1.1745064e-02
-9.0722144e-04
-5.1549502e-04
-8.6257853e-03
-5.9842137e-03
7.9503412e-03
1.5235869e-02
1.2899599e-02
-1.3341951e-03
-4.3022614e-03
4.8415540e-03
4.0231435e-03
-5.9838862e-03
-2.3811088e-02
-3.1379013e-02
-3.0545959e-02
-4.0630914e-02
-5.0033970e-02
-4.6942230e-02
-2.1676965e-02
1.4178758e-02
4.1761795e-02
5.9902997e-02
6.5579230e-02
7.9242638e-02
1.0007549e-01
1.0733210e-01
1.0357741e-01
8.9838141e-02
8.5791985e-02
9.4204464e-02
9.6655622e-02
8.9454851e-02
6.9249089e-02
5.4107218e-02
4.7533984e-02
3.4249076e-02
8.5409029e-03
-3.3838990e-02
-7.0471350e-02
-9.2102652e-02
-1.1095125e-01
-1.3190880e-01
-1.5883557e-01
-1.7570391e-01
-1.6961483e-01
-1.4265767e-01
-1.1292831e-01
-9.9303884e-02
-8.0457293e-02
-4.0100135e-02
1.5867736e-02
7.1187473e-02
1.0971977e-01
1.4448488e-01
1.7219241e-01
1.8580245e-01
1.9198056e-01
1.8639382e-01
1.7416279e-01
1.4270186e-01
8.6349428e-02
1.8911726e-02
-5.9422115e-02
-1.3024214e-01
-1.7448683e-01
-1.9360460e-01
-1.9440914e-01
-1.8146029e-01
-1.5030894e-01
-1.0400061e-01
-5.0247112e-02
-3.6667680e-03
2.1768508e-02
4.1973523e-02
5.9645383e-02
6.5674446e-02
5.5405508e-02
2.1990548e-02
-1.1112767e-02
-2.5631329e-02
-2.3705933e-02
-2.3188121e-02
-4.3300265e-02
-6.9002718e-02
-8.5112438e-02
-8.5901174e-02
-8.6782767e-02
-1.0885642e-01
-1.3210558e-01
-1.3719073e-01
-1.2333765e-01
-1.0802215e-01
-1.0930706e-01
-1.0665978e-01
-7.9016224e-02
-2.3977370e-02
3.9287547e-02
9.0205028e-02
1.2735273e-01
1.3454334e-01
1.1837814e-01
9.8813640e-02
7.5961605e-02
6.8616241e-02
7.0889137e-02
6.0846662e-02
3.9793224e-02
9.6239438e-03
-7.5249092e-03
-1.0390541e-03
2.0080004e-02
4.6002906e-02
6.5715212e-02
8.3325081e-02
8.6482920e-02
7.5737736e-02
6.5497443e-02
5.2656117e-02
4.4239697e-02
3.4194381e-02
2.1919191e-02
1.2300192e-02
-1.8879115e-03
-1.7202628e-02
-3.5066356e-02
-4.1162730e-02
-3.2084535e-02
-2.3034686e-02
-9.1517347e-03
-1.6381949e-03
-2.9359104e-03
-3.6227699e-03
-8.3656007e-03
-1.6739314e-02
-2.9780711e-02
-3.0397554e-02
-1.7255292e-02
-7.1907508e-03
8.7294884e-05
-1.9595323e-03
2.3744427e-04
2.6314191e-02
7.5828812e-02
1.3252917e-01
1.5862333e-01
1.5321503e-01
1.4040766e-01
1.2440977e-01
1.0261590e-01
6.8613138e-02
4.2950613e-02
3.1747648e-02
1.7340421e-02
2.6416323e-03
-1.0477957e-02
-9.4107743e-03
1.7500105e-03
4.3288746e-03
-9.4296173e-04
-1.4174333e-02
-1.9302196e-02
-1.9370608e-02
-3.5783760e-02
-6.1452845e-02
-8.6575091e-02
-9.8056917e-02
-1.0154091e-01
-1.1299243e-01
-1.2071427e-01
-1.1250701e-01
-8.1272492e-02
-4.3358060e-02
-1.9698446e-02
-1.0051816e-02
-1.5775411e-02
-1.7938064e-02
-1.4768351e-02
-2.5072959e-02
-3.6394282e-02
-3.4299183e-02
-1.3654103e-02
1.3562012e-02
3.0239368e-02
3.5730302e-02
3.3781441e-02
4.3560981e-02
5.9391731e-02
5.9282166e-02
4.5503755e-02
2.1358926e-02
5.9424042e-03
1.0691375e-02
2.7311298e-02
4.5613101e-02
5.7257982e-02
7.7357436e-02
1.0173114e-01
1.1108877e-01
1.0419803e-01
7.9432778e-02
5.1738505e-02
1.8968632e-02
-3.7560145e-02
-1.0375482e-01
-1.6358021e-01
-2.1202954e-01
-2.4975958e-01
-2.8039872e-01
-3.0227248e-01
-3.1314116e-01
-3.0876170e-01
-2.8909904e-01
-2.5671473e-01
-2.1070217e-01
-1.5009432e-01
-7.3323486e-02
2.1207440e-03
5.7636922e-02
9.9851138e-02
1.3633591e-01
1.7925192e-01
2.2069189e-01
2.4335955e-01
2.5104892e-01
2.4259791e-01
2.3392940e-01
2.2584151e-01
2.0109973e-01
1.6372526e-01
1.1678447e-01
8.0949516e-02
6.1372289e-02
4.2012283e-02
1.8912938e-02
-9.5869656e-03
-2.3766477e-02
-2.5820777e-02
-3.6493464e-02
-5.7571071e-02
-8.9408361e-02
-1.1245698e-01
-1.1713680e-01
-1.1198984e-01
-1.0675630e-01
-1.0943865e-01
-9.7899839e-02
-7.2846822e-02
-5.3779576e-02
-4.0661756e-02
-3.4570820e-02
-1.6387836e-02
1.3207450e-02
3.4201323e-02
4.6644553e-02
4.9538954e-02
5.8930336e-02
7.3685665e-02
7.7366638e-02
7.1596622e-02
5.5360114e-02
4.9376953e-02
5.4636150e-02
4.9767306e-02
3.4824417e-02
1.0970680e-02
-2.0684288e-03
-4.0480614e-04
3.5303333e-04
-4.9763140e-03
-2.2459916e-02
-3.3382974e-02
-2.5056885e-02
-3.3124202e-03
1.7708975e-02
2.2895279e-02
3.3579004e-02
4.9721560e-02
5.1133896e-02
3.9529004e-02
1.5549858e-02
-1.2738103e-03
-1.1289168e-02
-3.3944153e-02
-6.7474125e-02
-1.0993980e-01
-1.4080787e-01
-1.6029062e-01
-1.8913867e-01
-2.2642348e-01
-2.6857295e-01
-2.9259948e-01
-2.7802774e-01
-2.2487537e-01
-1.5249495e-01
-8.2496302e-02
-1.4287530e-02
3.6888105e-02
7.2738499e-02
1.1390256e-01
1.4968261e-01
1.7237520e-01
1.7972838e-01
1.8303671e-01
2.0112997e-01
2.2295710e-01
2.3722171e-01
2.3715453e-01
2.3022870e-01
2.3114917e-01
2.2923651e-01
2.1564530e-01
1.8429477e-01
1.3962485e-01
9.3234339e-02
4.0731256e-02
-1.9765122e-02
-7.5702753e-02
-9.7793766e-02
-8.7178700e-02
-6.6580015e-02
-3.7231189e-02
-1.5452842e-02
-2.0438431e-03
1.9089152e-02
4.5932237e-02
8.1141528e-02
1.0802911e-01
1.2073496e-01
1.3314821e-01
1.3883687e-01
1.3473927e-01
1.0785216e-01
5.8252758e-02
9.3520317e-04
-6.3292545e-02
-1.1258667e-01
-1.4635378e-01
-1.8328095e-01
-2.2393343e-01
-2.6936624e-01
-2.9884362e-01
-3.0125283e-01
-2.8749073e-01
-2.7296841e-01
-2.7031605e-01
-2.6199091e-01
-2.3977327e-01
-2.0752851e-01
-1.7275617e-01
-1.4579533e-01
-1.0471302e-01
-4.7265871e-02
9.5919596e-03
6.6179048e-02
1.2224620e-01
1.8297250e-01
2.2813754e-01
2.4814819e-01
2.6301107e-01
2.7548968e-01
2.8478814e-01
2.7155452e-01
2.3290542e-01
1.9009866e-01
1.4816679e-01
1.0791348e-01
6.6780688e-02
4.2312806e-02
3.5172215e-02
2.6570132e-02
2.7806051e-02
3.6158554e-02
4.4778082e-02
5.4227951e-02
5.7589731e-02
5.0156821e-02
1.8858166e-02
-2.2235078e-02
-6.1489296e-02
-1.1040083e-01
-1.5465817e-01
-1.8090799e-01
-1.8660968e-01
-1.8643118e-01
-1.9837580e-01
-2.0415444e-01
-1.8965857e-01
-1.5672089e-01
-1.1993413e-01
-9.6037496e-02
-7.3635760e-02
-4.8627730e-02
-2.0381622e-02
7.5895228e-03
2.3326069e-02
3.7522312e-02
5.5038830e-02
8.0569777e-02
1.1206816e-01
1.3702477e-01
1.5499514e-01
1.5273955e-01
1.3900066e-01
1.2802065e-01
1.1205600e-01
8.8308725e-02
5.3839605e-02
2.8483947e-02
1.2884865e-02
-1.2262329e-02
-3.0494937e-02
-2.8950659e-02
-6.2790286e-03
2.3551683e-02
4.1809552e-02
4.5461763e-02
3.3629031e-02
2.9813747e-02
3.3797221e-02
2.3881442e-02
1.3430538e-02
7.8073884e-03
6.3431017e-03
1.8828132e-03
-1.9498378e-02
-4.6434925e-02
-6.6796026e-02
-7.0655357e-02
-7.1053022e-02
-8.9651984e-02
-1.1120517e-01
-1.2062038e-01
-1.1329877e-01
-1.0468281e-01
-1.1384405e-01
-1.2628446e-01
-1.2855811e-01
-1.1538108e-01
-1.0055658e-01
-1.0314754e-01
-1.0257607e-01
-8.1965011e-02
-4.4313381e-02
-3.9835338e-03
2.4724558e-02
4.4063354e-02
5.3417148e-02
6.7595479e-02
8.7525916e-02
9.7043278e-02
9.4335636e-02
7.5714981e-02
6.1879361e-02
6.0012642e-02
5.4662479e-02
4.2778889e-02
2.2636465e-02
1.7482230e-02
2.9757534e-02
3.8860778e-02
3.9369372e-02
2.8349423e-02
3.0456703e-02
4.6624538e-02
5.5468927e-02
5.5772852e-02
4.0587988e-02
2.7057009e-02
2.0672475e-02
6.0021002e-03
-1.5562815e-02
-4.2023225e-02
-5.0277687e-02
-4.0287852e-02
-3.3639092e-02
-3.1856152e-02
-3.7779621e-02
-3.2636800e-02
-1.6046271e-02
-8.1866046e-03
-7.7400854e-03
-1.3315239e-02
-5.2530417e-03
1.4270241e-02
2.3717959e-02
2.4045110e-02
1.6817778e-02
2.3437916e-02
4.3471836e-02
5.7154523e-02
6.4040807e-02
5.5917830e-02
4.6862750e-02
4.3211066e-02
3.1390118e-02
1.2324342e-02
-1.3172041e-02
-2.2976782e-02
-1.7444531e-02
-1.8882147e-02
-2.7576734e-02
-4.1486792e-02
-3.8779358e-02
-2.0366291e-02
-7.7616112e-03
-3.9139969e-03
-1.1854108e-02
-1.1562430e-02
-1.0377345e-03
1.6441955e-03
-4.8407233e-03
-2.1713916e-02
-2.6714647e-02
-1.6522800e-02
-9.7184258e-03
-9.6862490e-03
-1.9550633e-02
-1.8172341e-02
-3.2414273e-03
6.4198643e-03
7.4334888e-03
-3.5037153e-03
-4.1071614e-03
8.3022471e-03
1.4037585e-02
1.1637477e-02
5.5736733e-04
2.7157393e-03
1.8358761e-02
2.6124565e-02
2.5276874e-02
1.5178463e-02
1.4760509e-02
2.2968379e-02
2.1085075e-02
9.5002211e-03
-1.1992039e-02
-2.0260295e-02
-1.4252090e-02
-1.5658556e-02
-2.3964352e-02
-3.9514300e-02
-4.4478393e-02
-3.6467836e-02
-3.2926677e-02
-3.5196444e-02
-4.2933789e-02
-3.6015998e-02
-1.6080608e-02
-2.8325928e-03
2.0782046e-03
-4.0920978e-03
3.1585911e-04
1.5358613e-02
1.9902426e-02
1.5112181e-02
1.9467600e-03
2.6331087e-03
1.7668346e-02
2.4834628e-02
2.3859884e-02
1.6359928e-02
2.3872399e-02
4.4677871e-02
5.5386904e-02
5.5344282e-02
4.5302894e-02
4.6619565e-02
5.6701733e-02
5.1795019e-02
3.4743591e-02
9.8537699e-03
-4.1691227e-04
3.3196430e-03
-1.2703217e-03
-1.4720546e-02
-3.6344765e-02
-4.4797776e-02
-3.7766450e-02
-3.5086630e-02
-3.9523158e-02
-5.1093397e-02
-4.9793292e-02
-3.7216963e-02
-3.2748320e-02
-3.5948942e-02
-4.6984144e-02
-4.3850802e-02
-2.5780276e-02
-1.4825430e-02
-1.2817845e-02
-2.0376184e-02
-1.4988213e-02
4.8431375e-03
1.7242275e-02
2.1637710e-02
1.7467991e-02
2.4321985e-02
4.1946436e-02
4.9162926e-02
4.5131802e-02
2.9636480e-02
2.3852566e-02
2.6570666e-02
1.6391951e-02
-3.5757370e-03
-2.8512671e-02
-3.3730927e-02
-1.8542926e-02
-6.4718515e-03
-2.5302894e-03
-9.6816268e-03
-5.1390949e-03
1.0317567e-02
1.3178345e-02
6.0426720e-03
-9.5112715e-03
-1.4576461e-02
-6.2341002e-03
-7.4213174e-04
-1.3153398e-03
-1.1421988e-02
-7.9899629e-03
8.2000060e-03
1.3186721e-02
8.5304199e-03
-3.7252124e-03
-2.8200786e-03
1.0320320e-02
1.3537271e-02
8.1724679e-03
-3.1853727e-03
-7.8596492e-05
1.6032294e-02
2.4838665e-02
2.5474268e-02
1.8050496e-02
2.5721924e-02
4.6371477e-02
5.7360317e-02
5.8592824e-02
4.7543645e-02
4.5632305e-02
5.5482344e-02
5.6619812e-02
4.9134704e-02
3.3289306e-02
2.9379830e-02
3.6282489e-02
3.1477503e-02
1.3340168e-02
-1.8122841e-02
-4.1587411e-02
-5.6352344e-02
-8.1734894e-02
-1.1545019e-01
-1.5607493e-01
-1.8245341e-01
-1.7879980e-01
-1.5467323e-01
-1.2847103e-01
-1.1291630e-01
-8.7437815e-02
-5.1743014e-02
-2.3806718e-02
-4.7007428e-03
4.0365276e-03
2.2670508e-02
4.9776302e-02
6.4239533e-02
6.9361606e-02
6.8401648e-02
7.9920282e-02
1.0081285e-01
1.0978492e-01
1.0978767e-01
1.0300718e-01
1.0212499e-01
1.0045681e-01
8.3629461e-02
6.0118695e-02
3.3926114e-02
2.3409477e-02
2.3017927e-02
1.1667922e-02
-7.4872037e-03
-3.2131838e-02
-3.9984406e-02
-2.7976146e-02
-1.7035978e-02
-1.1077461e-02
-1.2852936e-02
-1.0597978e-02
-3.6179957e-03
5.6868132e-04
-6.1872119e-05
-1.2010193e-02
-1.3516464e-02
-4.0060124e-03
-5.5916123e-03
-1.7981192e-02
-3.8586222e-02
-5.2673248e-02
-5.3445754e-02
-4.2669502e-02
-3.0824850e-02
-3.3836108e-02
-3.0949158e-02
-2.2019498e-02
-2.7053506e-02
-4.4911070e-02
-7.5084773e-02
-9.6917813e-02
-9.2260827e-02
-6.3567943e-02
-2.8158096e-02
-5.3155270e-04
3.7639579e-02
7.8355231e-02
1.0034677e-01
1.0799129e-01
1.0670161e-01
1.1241595e-01
1.1390882e-01
9.3907380e-02
6.0744040e-02
1.6377647e-02
-1.7491353e-02
-2.4735646e-02
-1.2399187e-02
4.9509509e-03
1.4797185e-02
3.4822949e-02
6.1101166e-02
7.3324106e-02
7.1257986e-02
5.2915672e-02
3.6914817e-02
2.9901535e-02
1.9438828e-02
-3.8946499e-04
-3.5900555e-02
-6.8456245e-02
-8.4357026e-02
-8.7804703e-02
-9.2832800e-02
-1.1390478e-01
-1.3488555e-01
-1.4306825e-01
-1.3809260e-01
-1.3356130e-01
-1.4614916e-01
-1.5749681e-01
-1.5152906e-01
-1.2737090e-01
-9.9791276e-02
-8.5424492e-02
-6.6114314e-02
-2.3420726e-02
4.5626881e-02
1.2178367e-01
1.8434126e-01
2.3058031e-01
2.3870504e-01
2.1409238e-01
1.7923788e-01
1.3349211e-01
9.5826036e-02
6.7901547e-02
3.6569159e-02
1.8186568e-03
-3.8705077e-02
-6.7850819e-02
-7.0065572e-02
-4.3505743e-02
-5.5153090e-03
2.4268953e-02
4.7718559e-02
5.0445399e-02
3.3045936e-02
6.5502146e-03
-3.3653407e-02
-7.8800337e-02
-1.2315902e-01
-1.5419747e-01
-1.7425572e-01
-2.0031146e-01
-2.1553522e-01
-2.0495996e-01
-1.6731598e-01
-1.1828379e-01
-7.6751815e-02
-4.3854659e-02
-2.3983637e-02
2.5836462e-03
4.1965983e-02
7.7129349e-02
1.1128629e-01
1.3514463e-01
1.5442589e-01
1.8178332e-01
2.1175980e-01
2.4606104e-01
2.6789358e-01
2.7585630e-01
2.8387022e-01
2.8991638e-01
2.9339717e-01
2.6926675e-01
2.1587277e-01
1.5821945e-01
9.8657352e-02
3.9647388e-02
-1.6864357e-02
-5.7397797e-02
-8.7862768e-02
-1.2907387e-01
-1.6250111e-01
-1.6826060e-01
-1.4484431e-01
-1.1562258e-01
-1.0502791e-01
-9.7623869e-02
-7.7703454e-02
-4.2956346e-02
-1.2613800e-02
-8.4029322e-03
-8.7510935e-03
7.1499680e-03
3.9220068e-02
6.6633160e-02
6.6199967e-02
5.6635595e-02
5.9403203e-02
7.3720613e-02
7.6804802e-02
4.7785792e-02
5.2025013e-03
-3.3354032e-02
-6.7806422e-02
-9.7171997e-02
-1.2103540e-01
-1.3970032e-01
-1.5424939e-01
-1.6672863e-01
-1.7762520e-01
-1.8620708e-01
-1.9429728e-01
-2.0298730e-01
-2.1110256e-01
-2.1691680e-01
-2.1940062e-01
-2.1857747e-01
-2.1375403e-01
-2.0550608e-01
-1.9500898e-01
-1.8121579e-01
-1.6133622e-01
-1.3188164e-01
-9.0620843e-02
-4.6106417e-02
-6.3890571e-03
3.0048341e-02
6.3990912e-02
1.0592618e-01
1.4599634e-01
1.6483317e-01
1.6607641e-01
1.5296869e-01
1.4591801e-01
1.4523531e-01
1.3137477e-01
1.0680790e-01
7.5492806e-02
5.9859181e-02
6.0555368e-02
5.8149064e-02
5.3312651e-02
4.2566651e-02
4.2124845e-02
5.6006876e-02
6.8666860e-02
7.9348910e-02
8.4833932e-02
1.0364380e-01
1.3927948e-01
1.7480379e-01
2.1024748e-01
2.2488527e-01
2.1830665e-01
2.1020856e-01
1.9629673e-01
1.7210501e-01
1.2901004e-01
7.9571782e-02
3.6926786e-02
-8.6068145e-03
-6.0114412e-02
-1.1672234e-01
-1.5719800e-01
-1.8489003e-01
-2.2327422e-01
-2.5386832e-01
-2.5704923e-01
-2.3129564e-01
-1.9918673e-01
-1.8592647e-01
-1.7533423e-01
-1.4978834e-01
-1.0473821e-01
-5.6439284e-02
-2.5814327e-02
-9.6350231e-03
-3.1954376e-03
1.3067281e-02
3.7115034e-02
4.9354714e-02
5.2084597e-02
4.7676740e-02
5.6551426e-02
7.6272545e-02
8.3300444e-02
7.6402351e-02
5.6869307e-02
4.7978639e-02
5.1680011e-02
4.8473246e-02
4.0387396e-02
2.7501461e-02
2.7789451e-02
3.9912916e-02
4.2714604e-02
3.4792410e-02
1.4428906e-02
3.4475760e-03
5.2694432e-03
1.1618817e-03
-9.8410366e-03
-2.9011522e-02
-3.4199662e-02
-2.3425967e-02
-1.6598261e-02
-1.5920553e-02
-2.2741175e-02
-1.5187182e-02
6.0035096e-03
1.9794800e-02
2.5361957e-02
1.9523550e-02
2.1704711e-02
3.4258267e-02
3.8691742e-02
3.3391642e-02
1.7853410e-02
1.5144675e-02
2.4374123e-02
2.2849583e-02
1.3104084e-02
-2.1836759e-03
-4.1511961e-03
4.5272610e-03
3.7770456e-03
-4.3343835e-03
-2.0922336e-02
-2.7971461e-02
-2.3555142e-02
-2.4759489e-02
-3.1504302e-02
-4.4088296e-02
-4.2552977e-02
-2.8207781e-02
-2.3189131e-02
-2.7854036e-02
-4.0523280e-02
-3.9988105e-02
-2.6637294e-02
-2.2578656e-02
-2.6154443e-02
-3.3560218e-02
-2.6276627e-02
-6.7396636e-03
5.3715465e-03
9.2992464e-03
5.5104067e-03
1.6439477e-02
4.1430221e-02
5.8929255e-02
6.6776277e-02
6.2649006e-02
6.7432643e-02
8.0037901e-02
7.6565987e-02
5.8616041e-02
3.1982594e-02
1.8041661e-02
1.5144307e-02
2.2994027e-03
-2.1274705e-02
-5.4644682e-02
-7.5312105e-02
-7.3299148e-02
-6.0288071e-02
-4.8467246e-02
-4.8105597e-02
-3.6968217e-02
-1.6610238e-02
-7.1525872e-03
-6.2432007e-03
-1.4503361e-02
-1.1280763e-02
6.0086132e-03
1.6763247e-02
1.9347707e-02
1.3267570e-02
1.7034013e-02
3.0396014e-02
3.5206548e-02
3.3403978e-02
2.5208995e-02
2.9985684e-02
4.6816517e-02
5.4142368e-02
5.0610805e-02
3.5921337e-02
3.0700747e-02
4.0467853e-02
5.0483297e-02
5.4035116e-02
4.5076483e-02
4.3670477e-02
4.7411496e-02
3.4921828e-02
4.9219840e-03
-4.3714962e-02
-8.8016842e-02
-1.0966216e-01
-1.1345616e-01
-1.1619587e-01
-1.3339717e-01
-1.4401771e-01
-1.3314468e-01
-1.0642096e-01
-8.0136563e-02
-7.0543799e-02
-5.6082950e-02
-3.1139473e-02
-1.2198937e-02
-3.7191864e-03
-9.2053941e-03
-7.3879539e-03
8.0994976e-03
2.2651160e-02
3.1383779e-02
2.9309509e-02
3.5859504e-02
5.0424146e-02
5.2728411e-02
4.5183263e-02
3.0254397e-02
2.7605815e-02
3.6257616e-02
3.5313024e-02
2.7631205e-02
1.7307856e-02
2.3061107e-02
4.2143887e-02
5.2315153e-02
5.0632097e-02
3.7358014e-02
3.5616454e-02
4.6383346e-02
4.7616078e-02
3.8929882e-02
2.3353293e-02
2.1375492e-02
2.9025065e-02
2.4112591e-02
8.9783245e-03
-1.2939118e-02
-1.9549875e-02
-1.0570821e-02
-7.7461466e-03
-1.3877261e-02
-3.0593393e-02
-3.6734993e-02
-2.8112331e-02
-2.2412387e-02
-2.4226717e-02
-3.7366065e-02
-3.9040800e-02
-2.2602109e-02
-5.9786235e-03
3.3314414e-03
1.3270723e-04
6.6632622e-03
2.3512931e-02
2.8563309e-02
2.2332572e-02
6.0367464e-03
-6.4133427e-05
5.3158095e-03
2.8443649e-03
-9.1839778e-03
-3.1198003e-02
-4.1483938e-02
-3.3221246e-02
-2.0483323e-02
-8.5794212e-03
-3.0846989e-03
1.3892273e-02
3.9865705e-02
5.3114733e-02
5.1495389e-02
3.4006135e-02
2.2553304e-02
2.2372597e-02
1.8315189e-02
8.7128682e-03
-1.0792726e-02
-2.1182529e-02
-1.7479753e-02
-1.5266286e-02
-1.8356100e-02
-3.0129175e-02
-3.2513154e-02
-2.3994311e-02
-1.9998139e-02
-2.5481635e-02
-4.5599412e-02
-5.9357823e-02
-5.3624900e-02
-3.4867951e-02
-1.5811766e-02
-9.9017349e-03
2.5262710e-03
1.9953671e-02
2.2078480e-02
1.2642106e-02
-3.9859570e-03
-7.2759336e-03
1.7971398e-03
3.5953024e-03
-9.3418381e-04
-1.0515785e-02
-5.6506061e-03
1.2623410e-02
2.3993048e-02
2.7750521e-02
2.3999387e-02
3.2429962e-02
5.0648869e-02
5.6267931e-02
5.0332263e-02
3.5273067e-02
3.1143052e-02
3.4942808e-02
2.5200028e-02
2.4395645e-03
-3.2365138e-02
-5.6122305e-02
-5.8994313e-02
-5.2687123e-02
-4.6959193e-02
-5.1039298e-02
-4.1967628e-02
-1.8042436e-02
-1.4024362e-03
3.8041707e-03
-3.7930410e-03
-1.9129895e-03
1.2155142e-02
2.0541801e-02
1.9220626e-02
3.5777002e-03
-4.9575045e-03
6.4652515e-04
6.5835282e-03
7.0133740e-03
-2.4598180e-03
1.0204946e-03
1.5222476e-02
1.8027858e-02
1.1480370e-02
-3.1677250e-03
-4.9099707e-03
7.1099751e-03
1.2380778e-02
9.4634592e-03
-2.1947572e-03
-1.5360346e-03
1.2901814e-02
1.8530467e-02
1.2145674e-02
-1.8957793e-03
-7.0501772e-04
1.3581513e-02
2.0805268e-02
2.1403395e-02
1.4829582e-02
1.9416316e-02
3.0816580e-02
2.6709584e-02
1.0460647e-02
-1.3329744e-02
-2.3069456e-02
-1.9479977e-02
-2.2284173e-02
-3.0609176e-02
-4.4211322e-02
-4.4412191e-02
-2.9360716e-02
-1.5788351e-02
-7.0272747e-03
-5.4623689e-03
8.4775028e-03
3.0415425e-02
3.9023533e-02
3.8301545e-02
2.9677808e-02
3.2494404e-02
4.7017202e-02
5.2916615e-02
5.0790596e-02
4.1075914e-02
4.1783324e-02
4.8049509e-02
3.6593725e-02
1.0619870e-02
-2.6132530e-02
-5.3414413e-02
-6.5717062e-02
-7.5382843e-02
-8.5493498e-02
-1.0267760e-01
-1.1088086e-01
-1.0226117e-01
-8.6742923e-02
-7.2894179e-02
-6.8343223e-02
-5.2950804e-02
-2.6542682e-02
-8.5699807e-03
-2.4953086e-04
-2.8278306e-03
3.7404184e-03
2.0433478e-02
2.7521064e-02
2.5521126e-02
1.5138200e-02
1.6953654e-02
3.0456081e-02
3.4844610e-02
3.2421103e-02
2.6356504e-02
3.7221611e-02
6.0210303e-02
7.1488483e-02
7.1513631e-02
5.8863409e-02
5.4362611e-02
6.0112312e-02
5.7013249e-02
4.4635081e-02
2.1458192e-02
1.0893785e-02
1.5224463e-02
1.2957458e-02
1.0810727e-03
-2.2117048e-02
-3.2743715e-02
-2.8656256e-02
-3.1403391e-02
-4.2840949e-02
-6.3069221e-02
-7.0367552e-02
-6.3811241e-02
-6.3299905e-02
-6.7431591e-02
-7.2975083e-02
-6.0475222e-02
-3.2741160e-02
-1.0601716e-02
3.0747002e-03
5.8664522e-03
1.9903448e-02
4.5039619e-02
5.9476017e-02
6.4304453e-02
5.9573918e-02
6.4912657e-02
7.9800681e-02
8.4155060e-02
7.7323168e-02
5.9810442e-02
5.4915490e-02
5.8816495e-02
4.8266805e-02
2.8219079e-02
-3.9047603e-04
-1.9175657e-02
-2.4784682e-02
-3.4805669e-02
-5.1151754e-02
-7.4123703e-02
-8.2925674e-02
-7.4114903e-02
-6.3404902e-02
-5.7075590e-02
-6.2548348e-02
-5.8836468e-02
-3.9159256e-02
-1.8581005e-02
-2.2161615e-03
4.4892804e-03
2.1161451e-02
4.6987197e-02
6.0574374e-02
6.2891561e-02
5.4486307e-02
5.3582756e-02
5.9151551e-02
5.2151334e-02
3.6708504e-02
1.6123522e-02
9.3583636e-03
1.3883302e-02
8.4768469e-03
-6.3535452e-03
-2.9835087e-02
-4.1037442e-02
-3.9480992e-02
-4.5471392e-02
-5.9367766e-02
-7.9432116e-02
-8.4371974e-02
-7.5391444e-02
-7.2808139e-02
-7.7492041e-02
-8.9341239e-02
-8.7415583e-02
-7.1586599e-02
-5.9799863e-02
-5.0362256e-02
-4.3320548e-02
-1.8378621e-02
2.5672994e-02
6.7688412e-02
1.0370487e-01
1.1798790e-01
1.1749407e-01
1.1856298e-01
1.1591955e-01
1.0867579e-01
8.8022032e-02
6.5159564e-02
5.1030227e-02
3.5232482e-02
1.6193819e-02
-7.5129558e-03
-1.8166200e-02
-1.3249109e-02
-1.1028238e-02
-1.4852026e-02
-2.4076454e-02
-1.5541366e-02
1.2721763e-02
3.8427081e-02
5.6390791e-02
6.5813577e-02
8.7899695e-02
1.2292231e-01
1.5051000e-01
1.6867100e-01
1.7626087e-01
1.9312424e-01
2.1537197e-01
2.1912347e-01
2.0554674e-01
1.7598631e-01
1.4854914e-01
1.2166417e-01
7.4859634e-02
1.7311931e-02
-4.2125743e-02
-9.7176248e-02
-1.4648678e-01
-1.9644958e-01
-2.4222133e-01
-2.7816850e-01
-3.0535772e-01
-3.2636034e-01
-3.4077161e-01
-3.4618155e-01
-3.4366530e-01
-3.3676174e-01
-3.2738087e-01
-3.1524945e-01
-2.9864667e-01
-2.7458318e-01
-2.4163738e-01
-2.0476056e-01
-1.6766965e-01
-1.2353798e-01
-6.5006743e-02
9.7666044e-03
8.0025814e-02
1.2555334e-01
1.5081324e-01
1.6089737e-01
1.7687333e-01
1.9771082e-01
2.0379575e-01
1.9680333e-01
1.7864472e-01
1.7188447e-01
1.7578166e-01
1.6802218e-01
1.5099219e-01
1.2613092e-01
1.1210755e-01
1.1096718e-01
1.0512877e-01
9.2029442e-02
6.7493532e-02
5.2005694e-02
4.6968605e-02
3.2480012e-02
8.2590561e-03
-2.2872609e-02
-3.4314993e-02
-2.6791072e-02
-2.3274125e-02
-2.5046903e-02
-3.6629451e-02
-3.8327562e-02
-2.5266196e-02
-1.6123893e-02
-1.2534608e-02
-1.6306814e-02
-8.7546081e-03
1.1063397e-02
2.3837635e-02
2.9082091e-02
2.6485834e-02
3.7670239e-02
6.2254060e-02
7.8058742e-02
8.2806432e-02
6.9067002e-02
5.4998723e-02
4.8107143e-02
3.2950246e-02
8.3140871e-03
-2.7224976e-02
-5.0535037e-02
-6.0021058e-02
-7.7447378e-02
-9.1149480e-02
-8.8167847e-02
-6.1618964e-02
-2.6506543e-02
-4.1639824e-03
8.3780597e-03
1.2681469e-02
2.3715850e-02
4.0451723e-02
4.5727194e-02
3.9160244e-02
1.8507823e-02
2.2102644e-03
-9.0428801e-03
-3.4340714e-02
-6.1538038e-02
-7.5756048e-02
-6.5876050e-02
-4.4522475e-02
-3.1576669e-02
-2.3755839e-02
-2.0346137e-02
-8.0133904e-03
7.4952943e-03
6.0056233e-03
-7.4317033e-03
-2.6729234e-02
-3.3527004e-02
-3.2684458e-02
-4.5469447e-02
-5.2545011e-02
-3.4206945e-02
1.1743752e-02
6.3661146e-02
9.8893682e-02
1.1921711e-01
1.2100170e-01
1.1956056e-01
1.2000641e-01
1.0629982e-01
8.1521392e-02
5.1210226e-02
3.2905798e-02
1.8786696e-02
-1.4914100e-02
-4.5462359e-02
-5.0821221e-02
-3.3216303e-02
-1.4018890e-02
-1.3096075e-02
-1.7116508e-02
-1.3955026e-02
2.9734663e-04
1.0190394e-02
-4.2620202e-03
-2.2635186e-02
-2.6706993e-02
-1.7479855e-02
-1.4131324e-02
-3.5466525e-02
-6.0557297e-02
-7.1910899e-02
-7.0716115e-02
-7.3176754e-02
-9.5892318e-02
-1.1979179e-01
-1.2590374e-01
-1.1241814e-01
-9.9319300e-02
-1.0729188e-01
-1.1561406e-01
-1.0270921e-01
-6.7532917e-02
-2.9028650e-02
-5.5676164e-03
2.0819362e-02
5.8669220e-02
9.9021096e-02
1.3105443e-01
1.4447296e-01
1.5812057e-01
1.7173717e-01
1.6883978e-01
1.4889595e-01
1.0420319e-01
5.0641965e-02
1.4569600e-02
1.8964973e-03
-6.4037154e-03
-2.9930405e-02
-4.9109519e-02
-4.3384918e-02
-1.1706878e-02
2.3964998e-02
4.1019411e-02
4.1587720e-02
2.8081296e-02
1.8011399e-02
9.2249827e-03
-1.8621800e-02
-4.5222572e-02
-5.3543636e-02
-4.7729570e-02
-4.4543844e-02
-5.9395012e-02
-7.4326973e-02
-7.8471246e-02
-7.5160212e-02
-7.7014368e-02
-1.0047169e-01
-1.2560752e-01
-1.3033942e-01
-1.1269732e-01
-9.2293819e-02
-8.9918743e-02
-8.4491904e-02
-5.3876810e-02
1.1311137e-03
5.8083674e-02
9.6541605e-02
1.3163820e-01
1.5859715e-01
1.6424872e-01
1.5373442e-01
1.2707912e-01
9.8593622e-02
7.7922335e-02
6.9224941e-02
6.2834660e-02
4.1686393e-02
2.7105126e-02
2.7777306e-02
3.2092345e-02
3.1062694e-02
1.0180971e-02
-1.7164071e-02
-3.1003397e-02
-2.7350543e-02
-2.1980223e-02
-3.3315632e-02
-4.1534802e-02
-4.1966713e-02
-4.9180070e-02
-6.5010392e-02
-9.1584939e-02
-1.0952801e-01
-1.0477721e-01
-8.2347361e-02
-5.9639053e-02
-5.2531572e-02
-3.8574723e-02
-9.3013239e-03
2.2333341e-02
4.7673649e-02
5.8539022e-02
7.5252282e-02
1.0077559e-01
1.1872432e-01
1.2671476e-01
1.1914666e-01
1.1254511e-01
1.0825528e-01
9.0334591e-02
6.1649551e-02
2.4158563e-02
-2.9896039e-03
-1.5495176e-02
-2.5937143e-02
-4.1471168e-02
-7.1777442e-02
-9.6931511e-02
-1.0393936e-01
-1.0155855e-01
-1.0223390e-01
-1.1757292e-01
-1.2837314e-01
-1.1738654e-01
-8.5599332e-02
-5.1111149e-02
-3.3140053e-02
-1.1184835e-02
2.2100721e-02
5.3389111e-02
7.5955087e-02
7.8334497e-02
7.7268719e-02
8.1816846e-02
7.9994904e-02
7.0634712e-02
5.0641331e-02
3.5645267e-02
2.9948413e-02
2.1634022e-02
5.7952417e-03
-2.2928834e-02
-4.3122774e-02
-4.5356476e-02
-4.1748239e-02
-4.0394329e-02
-4.8150414e-02
-4.7174441e-02
-3.7122937e-02
-3.2564540e-02
-3.3761372e-02
-4.1086880e-02
-3.2258536e-02
-1.0976200e-02
-1.0995861e-03
-1.8486456e-03
-1.2624974e-02
-1.2731035e-02
6.6900653e-04
8.8207333e-03
1.0887247e-02
6.6031623e-03
1.4742177e-02
3.2676846e-02
3.8924304e-02
3.4510401e-02
1.9920412e-02
1.4380698e-02
2.0234639e-02
2.0793667e-02
1.4821109e-02
3.0794670e-04
-1.7086520e-03
1.0693922e-02
1.8616629e-02
1.9017165e-02
9.0990565e-03
1.2243257e-02
2.8894616e-02
3.5322797e-02
3.1299980e-02
1.5665457e-02
7.4755590e-03
1.1459503e-02
1.0895028e-02
4.8124798e-03
-7.6643148e-03
-7.4240989e-03
2.3554044e-03
-6.0818367e-04
-1.3996815e-02
-3.4651150e-02
-4.0311723e-02
-3.0354881e-02
-2.4639802e-02
-2.1159691e-02
-2.1596562e-02
-9.5522090e-03
1.3507992e-02
2.6838953e-02
3.2020257e-02
3.0118944e-02
4.1204285e-02
6.3396280e-02
7.4353168e-02
7.4255829e-02
6.0295955e-02
5.0542450e-02
4.7770505e-02
3.4361414e-02
1.0265946e-02
-2.3943396e-02
-4.5138884e-02
-4.7469804e-02
-4.7025496e-02
-4.9129953e-02
-5.9109979e-02
-5.7377866e-02
-4.5072174e-02
-4.2655147e-02
-5.0661236e-02
-6.9333335e-02
-7.7061378e-02
-6.5883633e-02
-4.9229444e-02
-3.4072562e-02
-2.7878153e-02
-1.3718285e-02
1.1757683e-02
3.4900013e-02
5.2623879e-02
5.5310210e-02
5.7902269e-02
6.6678106e-02
6.6268567e-02
5.6074268e-02
3.7597417e-02
3.2585800e-02
3.9456271e-02
3.5618055e-02
2.0740902e-02
-4.5444074e-03
-1.9209315e-02
-2.3552611e-02
-3.6588231e-02
-5.2266499e-02
-6.7112821e-02
-6.5532048e-02
-4.8246329e-02
-3.2529790e-02
-2.4496825e-02
-2.9613859e-02
-2.4755316e-02
-7.5007383e-03
2.3303301e-03
4.8826816e-03
-7.0129095e-04
5.5919028e-03
2.3235799e-02
3.0555022e-02
2.8094367e-02
1.7090190e-02
1.7765006e-02
3.0508882e-02
3.5991867e-02
3.3793104e-02
2.1934198e-02
1.9625497e-02
2.7653122e-02
2.6014889e-02
1.5117650e-02
-2.7389939e-03
-5.5719350e-03
7.2541092e-03
1.5561509e-02
1.6670362e-02
9.1652745e-03
1.4016097e-02
3.1110083e-02
4.0663945e-02
4.2062764e-02
3.4683388e-02
3.9129703e-02
5.4761044e-02
6.0453766e-02
5.3846178e-02
3.3180178e-02
2.1220855e-02
1.8195252e-02
1.3051230e-03
-2.7406244e-02
-6.5447271e-02
-9.4295823e-02
-1.1377988e-01
-1.4254528e-01
-1.6621067e-01
-1.6887214e-01
-1.4478573e-01
-1.0868350e-01
-8.0298811e-02
-6.2363483e-02
-5.7194956e-02
-4.3441253e-02
-1.9746389e-02
-6.9255304e-03
-3.4250335e-03
-9.9781569e-03
-9.3236330e-03
8.3777529e-04
1.8610312e-03
-6.7049181e-03
-2.4297772e-02
-2.8757958e-02
-1.7508941e-02
-9.1763933e-03
-2.3020881e-03
-1.0008960e-03
9.3226414e-03
3.3238473e-02
5.5544575e-02
7.3870187e-02
8.0805691e-02
9.2524222e-02
1.1729728e-01
1.4244896e-01
1.6747412e-01
1.7258050e-01
1.5993737e-01
1.4930571e-01
1.3935456e-01
1.2793392e-01
9.8307819e-02
5.6576724e-02
1.9232208e-02
-1.7148857e-02
-4.2378535e-02
-5.5963055e-02
-5.5553146e-02
-4.2437693e-02
-2.8810094e-02
-1.4697033e-02
-1.4422452e-02
-2.2847570e-02
-2.9171312e-02
-4.1103664e-02
-5.6335317e-02
-7.4671000e-02
-7.8976904e-02
-6.9989621e-02
-6.6618172e-02
-6.3730834e-02
-5.7350119e-02
-3.4124080e-02
-6.9007142e-04
2.1204304e-02
2.8790486e-02
1.6965344e-02
5.5570319e-03
3.2160178e-03
-4.9566672e-03
-1.0565879e-02
-7.6840765e-03
9.5401157e-03
3.3760853e-02
4.8977901e-02
6.1437674e-02
6.6726774e-02
6.6472576e-02
6.3810746e-02
4.9771010e-02
2.6780851e-02
-3.4609627e-03
-2.5742516e-02
-4.2581964e-02
-7.2658889e-02
-1.0453058e-01
-1.2639231e-01
-1.3044253e-01
-1.2698018e-01
-1.3349558e-01
-1.3260859e-01
-1.1777671e-01
-9.6592903e-02
-7.5439105e-02
-6.2517348e-02
-5.1788105e-02
-4.3541095e-02
-2.7895805e-02
-5.4212744e-03
8.7836046e-03
2.3485983e-02
3.7955424e-02
5.7193876e-02
8.4678117e-02
1.1029792e-01
1.4264744e-01
1.6736920e-01
1.7207783e-01
1.7133108e-01
1.7024483e-01
1.7348297e-01
1.6380236e-01
1.3529972e-01
1.0251098e-01
6.5250068e-02
3.7467381e-02
2.6694829e-02
3.3226237e-02
4.7517231e-02
5.2978075e-02
6.3470819e-02
7.2589847e-02
6.4351286e-02
4.2355987e-02
4.7142530e-03
-3.0675174e-02
-5.5193630e-02
-7.7999166e-02
-1.0872244e-01
-1.5769973e-01
-2.0537413e-01
-2.3076618e-01
-2.3255747e-01
-2.3032905e-01
-2.4336844e-01
-2.5285715e-01
-2.4130479e-01
-2.0891891e-01
-1.7341855e-01
-1.5358416e-01
-1.3057807e-01
-9.1687945e-02
-4.2102372e-02
5.7816354e-03
4.0211431e-02
8.2423100e-02
1.4328492e-01
2.1597278e-01
2.9267065e-01
3.4977706e-01
3.7187714e-01
3.5231390e-01
3.0456563e-01
2.4873920e-01
1.8740854e-01
1.3981254e-01
1.0349749e-01
5.6927626e-02
8.3117919e-04
-6.2881062e-02
-1.1704697e-01
-1.4556166e-01
-1.5037500e-01
-1.4737726e-01
-1.5119931e-01
-1.4836768e-01
-1.2894138e-01
-9.6100099e-02
-6.8535237e-02
-6.3813043e-02
-5.9130643e-02
-4.5625085e-02
-3.5929824e-02
-3.5996622e-02
-4.9261044e-02
-5.5919338e-02
-4.4870101e-02
-2.2161316e-02
-5.4197875e-03
-1.0456864e-02
-1.3902309e-02
-8.6347056e-03
-8.5533109e-03
-2.0222528e-02
-4.9818876e-02
-7.5178168e-02
-7.4318286e-02
-4.8187520e-02
-2.0796883e-02
-1.3889027e-02
-4.5890356e-03
1.3281084e-02
2.3493803e-02
2.2301684e-02
6.9668967e-03
-4.5780022e-04
1.0427895e-02
2.8624569e-02
4.4566422e-02
4.8668433e-02
6.0854918e-02
8.1878061e-02
9.2935464e-02
9.4573927e-02
8.7021799e-02
8.9209816e-02
1.0015663e-01
9.9689824e-02
8.6408329e-02
5.9252318e-02
3.6462485e-02
1.8301406e-02
-1.0548993e-02
-4.6828810e-02
-8.9993424e-02
-1.2155927e-01
-1.2990453e-01
-1.2130438e-01
-1.0722698e-01
-1.0033555e-01
-8.3991242e-02
-5.9832059e-02
-4.6137244e-02
-4.1822815e-02
-4.4869047e-02
-3.3826860e-02
-1.0122893e-02
4.9783552e-03
1.2471526e-02
1.4250432e-02
2.9624976e-02
5.4409646e-02
6.6381830e-02
6.7425504e-02
5.7429240e-02
5.5367595e-02
6.4568654e-02
6.7282015e-02
6.0861385e-02
4.3053982e-02
3.5355004e-02
3.9390116e-02
3.4445692e-02
2.0159667e-02
-2.5956266e-03
-1.3929130e-02
-8.1873438e-03
1.3855125e-03
7.5538993e-03
3.2118305e-03
1.0216944e-02
2.6785500e-02
3.0653768e-02
2.3653310e-02
7.2946868e-03
2.6411769e-03
8.3532390e-03
2.8898204e-03
-1.2306646e-02
-3.4928534e-02
-4.2139916e-02
-3.5316529e-02
-3.7935259e-02
-5.0775192e-02
-7.3482262e-02
-8.4832639e-02
-7.6194599e-02
-5.9660453e-02
-4.5412955e-02
-4.1115506e-02
-2.3955276e-02
4.3446663e-03
2.3062563e-02
3.2369367e-02
2.9846558e-02
3.4645540e-02
4.7526490e-02
5.0230498e-02
4.3452292e-02
2.7117018e-02
2.3050557e-02
3.0760048e-02
2.8544680e-02
1.6548841e-02
-4.1268029e-03
-1.0176481e-02
-7.4106911e-04
1.5797386e-03
-3.4108693e-03
-1.5972937e-02
-1.7218636e-02
-1.9335867e-03
1.3977405e-02
2.2916607e-02
1.8260353e-02
2.1542700e-02
3.3461667e-02
3.3671459e-02
2.1937751e-02
-2.0175482e-03
-1.5714201e-02
-1.6227865e-02
-2.2763861e-02
-3.6528087e-02
-5.6569304e-02
-6.1090180e-02
-5.2167306e-02
-5.1266236e-02
-5.4831978e-02
-6.1053200e-02
-5.4022451e-02
-3.6985249e-02
-3.0357944e-02
-2.9488136e-02
-2.8469439e-02
-9.2594672e-03
2.2931127e-02
4.6177753e-02
6.0475503e-02
6.0440808e-02
6.1556279e-02
7.0661458e-02
7.4122684e-02
7.0651182e-02
5.7611065e-02
5.5688362e-02
6.5855472e-02
6.8148436e-02
6.3296503e-02
4.8900252e-02
4.3825274e-02
5.0112492e-02
4.8887014e-02
3.8542487e-02
1.5101596e-02
-1.4257398e-03
-9.9441608e-03
-3.0872004e-02
-6.2271175e-02
-1.0147765e-01
-1.2647897e-01
-1.2920977e-01
-1.2207170e-01
-1.0871222e-01
-9.6854375e-02
-7.5340171e-02
-4.6080820e-02
-2.5970744e-02
-1.2987809e-02
-4.4816548e-03
1.7750543e-02
5.0868914e-02
7.4781503e-02
9.7925941e-02
1.1898454e-01
1.4008421e-01
1.6128705e-01
1.7193779e-01
1.6966794e-01
1.4430007e-01
1.1222643e-01
8.3694539e-02
4.7057339e-02
1.1700605e-02
-1.7242368e-02
-3.1164290e-02
-3.3847930e-02
-4.0789582e-02
-4.7917674e-02
-5.1713114e-02
-4.3037455e-02
-3.1402095e-02
-3.6452500e-02
-4.4304547e-02
-4.3576851e-02
-3.2435058e-02
-2.5302545e-02
-4.1393295e-02
-6.5593012e-02
-8.0959306e-02
-8.0726336e-02
-7.8617566e-02
-9.3713904e-02
-1.1233305e-01
-1.2129049e-01
-1.1688068e-01
-1.1309279e-01
-1.2824157e-01
-1.4484991e-01
-1.4272737e-01
-1.1771449e-01
-9.1456951e-02
-8.5790886e-02
-7.7590431e-02
-4.6577535e-02
5.8665907e-03
6.1083965e-02
1.0110474e-01
1.4639612e-01
1.9635864e-01
2.3085344e-01
2.5083855e-01
2.5820325e-01
2.5442803e-01
2.2646332e-01
1.8087062e-01
1.3233689e-01
7.5410529e-02
2.6815476e-02
-6.5208130e-03
-3.3342773e-02
-6.4782251e-02
-1.1374838e-01
-1.6284715e-01
-1.9299643e-01
-2.0139693e-01
-1.9291647e-01
-1.7485578e-01
-1.4327329e-01
-1.0375610e-01
-6.4944044e-02
-3.4773207e-02
-2.3438949e-02
-1.2051074e-02
9.3667924e-03
3.2309541e-02
4.7947339e-02
4.6353607e-02
4.7176636e-02
5.6836393e-02
6.3119707e-02
5.9092880e-02
3.6648305e-02
1.5652224e-02
8.4088544e-03
9.9360316e-03
9.6770100e-03
-5.1035127e-03
-1.2968987e-02
-1.1644885e-02
-1.9635199e-02
-3.3338045e-02
-4.7196886e-02
-4.4000983e-02
-2.8657872e-02
-2.1298862e-02
-2.0616200e-02
-2.4929614e-02
-1.6349077e-02
5.1437426e-03
2.3547406e-02
3.7881436e-02
4.4305293e-02
6.0721674e-02
8.4168704e-02
9.3501459e-02
9.1201907e-02
7.9493628e-02
7.9350369e-02
8.7982725e-02
8.3046565e-02
6.6246671e-02
3.8631024e-02
2.0629711e-02
1.3236902e-02
-2.5433585e-03
-2.9619713e-02
-7.1402603e-02
-1.0562868e-01
-1.1607650e-01
-1.0864192e-01
-9.5037335e-02
-8.7583690e-02
-6.9312839e-02
-3.9395539e-02
-1.4025833e-02
4.8121047e-03
1.4976957e-02
3.4867519e-02
5.9627918e-02
6.7150791e-02
6.2248021e-02
4.8462413e-02
4.4506028e-02
5.0054613e-02
4.5042229e-02
2.7963846e-02
-1.8669898e-03
-2.5032918e-02
-4.0655164e-02
-6.7081753e-02
-9.0144196e-02
-9.5359942e-02
-7.7233819e-02
-4.8448831e-02
-2.7222898e-02
-1.8225156e-02
-2.4675200e-02
-2.3592817e-02
-9.1514592e-03
3.1327394e-03
1.0779231e-02
1.1367158e-02
2.5265600e-02
4.9465351e-02
6.1711919e-02
6.2457789e-02
5.0687140e-02
4.7301290e-02
5.3351135e-02
4.7288519e-02
3.1765984e-02
1.1150271e-02
5.5890218e-03
1.2486606e-02
1.0142829e-02
1.2411417e-03
-1.1770465e-02
-9.8573779e-03
6.1375990e-03
1.4781968e-02
1.3486904e-02
8.0070600e-04
-2.7617444e-03
7.0331520e-03
1.4502000e-02
1.6476060e-02
8.3849035e-03
1.0320585e-02
2.2200273e-02
2.3188250e-02
1.4432011e-02
-2.9058762e-03
-1.0610341e-02
-9.1224628e-03
-1.5770101e-02
-3.0711795e-02
-5.5977264e-02
-7.2711824e-02
-8.2702834e-02
-1.0632425e-01
-1.2520361e-01
-1.2108341e-01
-8.8977310e-02
-4.7024893e-02
-1.7674671e-02
-5.3025907e-04
5.5172216e-03
2.2196702e-02
4.9049699e-02
6.4456095e-02
6.6370945e-02
5.4010491e-02
5.1267668e-02
5.8837116e-02
5.5661175e-02
4.4337848e-02
2.7586732e-02
2.6435481e-02
3.6407722e-02
3.4186151e-02
2.0769404e-02
-3.8179826e-03
-1.7042336e-02
-1.9706704e-02
-3.4852624e-02
-5.1519061e-02
-5.8504588e-02
-4.4323165e-02
-1.7211295e-02
4.5083116e-03
1.8814023e-02
2.2860102e-02
3.8460012e-02
6.6271939e-02
8.5646709e-02
9.7738914e-02
9.9590443e-02
1.0780318e-01
1.2848469e-01
1.4625635e-01
1.5519380e-01
1.4968130e-01
1.4963465e-01
1.5739836e-01
1.5434360e-01
1.3823120e-01
1.0556855e-01
7.4050227e-02
4.4028219e-02
-2.6792419e-03
-4.9710834e-02
-8.1288392e-02
-9.4529313e-02
-1.0263897e-01
-1.2250295e-01
-1.4648945e-01
-1.6554112e-01
-1.7358071e-01
-1.7634429e-01
-1.8592027e-01
-1.9384352e-01
-1.9159081e-01
-1.7844364e-01
-1.6412072e-01
-1.5987325e-01
-1.6006481e-01
-1.5938416e-01
-1.5179569e-01
-1.4333701e-01
-1.4547507e-01
-1.5273255e-01
-1.5964490e-01
-1.5593903e-01
-1.4621467e-01
-1.4326082e-01
-1.3311799e-01
-1.0346489e-01
-5.1412160e-02
9.0415323e-03
5.9563384e-02
9.9501036e-02
1.2245975e-01
1.3973499e-01
1.5840688e-01
1.6855611e-01
1.7820721e-01
1.8347338e-01
1.8647415e-01
1.9227588e-01
1.9421916e-01
1.9839458e-01
2.0110297e-01
2.0888657e-01
2.2519530e-01
2.3700135e-01
2.4448613e-01
2.3317367e-01
2.0336950e-01
1.6955835e-01
1.3086258e-01
9.3240039e-02
5.0111301e-02
4.8502718e-03
-3.7366187e-02
-8.8698380e-02
-1.3582666e-01
-1.6599610e-01
-1.8053420e-01
-1.9449116e-01
-2.2501520e-01
-2.5298886e-01
-2.5698384e-01
-2.3518247e-01
-2.0700702e-01
-1.9155366e-01
-1.7372762e-01
-1.3871340e-01
-8.2215053e-02
-2.2084189e-02
1.9665288e-02
5.6077067e-02
8.0059457e-02
8.2439897e-02
7.3700254e-02
5.4181285e-02
4.3801017e-02
5.2324445e-02
7.1574234e-02
9.4036137e-02
1.1034233e-01
1.2932217e-01
1.4252644e-01
1.3997037e-01
1.2777210e-01
1.0415067e-01
8.3577464e-02
6.6859533e-02
4.4180370e-02
1.3429611e-02
-3.0886661e-02
-6.9072587e-02
-8.1519634e-02
-6.7269719e-02
-4.6665653e-02
-4.0415269e-02
-2.8636068e-02
-1.0565646e-02
-5.3150514e-03
-1.4807024e-02
-4.0402269e-02
-6.0752441e-02
-5.7859875e-02
-3.6030410e-02
-1.4215114e-02
-9.1135725e-03
-6.1573353e-04
9.9517778e-03
2.0524605e-03
-2.2608604e-02
-6.0272094e-02
-9.3449126e-02
-1.1120766e-01
-1.1507134e-01
-1.1820206e-01
-1.3570584e-01
-1.4889885e-01
-1.3954587e-01
-1.0498819e-01
-6.2261841e-02
-3.0198421e-02
9.1830910e-03
5.1736768e-02
7.6778173e-02
8.8492477e-02
9.1096689e-02
1.0112131e-01
1.1088017e-01
1.0092936e-01
7.7516603e-02
4.4126499e-02
2.1775137e-02
1.3976158e-02
5.2797192e-03
-4.2996313e-03
-1.6346662e-02
-1.2409346e-02
4.5964909e-03
1.1666659e-02
9.4142489e-03
-1.6378940e-04
4.0499645e-03
2.2741592e-02
3.5077294e-02
3.8196688e-02
3.0513461e-02
3.4044418e-02
4.8410593e-02
5.3808727e-02
5.2922461e-02
4.6569281e-02
4.8950433e-02
5.2782034e-02
4.3289654e-02
2.8273446e-02
7.3588783e-03
-6.1977975e-04
4.1608985e-03
5.5094216e-04
-8.6947902e-03
-1.9446755e-02
-1.3524248e-02
4.2361329e-03
1.1476995e-02
9.3306715e-03
-1.0001752e-03
2.8371772e-04
1.0877173e-02
9.7629835e-03
-1.5865473e-03
-2.1552573e-02
-2.6773695e-02
-1.7066381e-02
-1.4132324e-02
-1.7678647e-02
-2.7876783e-02
-2.5129688e-02
-1.0080051e-02
-3.8760860e-03
-6.9256984e-03
-1.8415444e-02
-1.9125286e-02
-9.0649175e-03
-5.8505249e-03
-8.5454854e-03
-1.7962140e-02
-1.5498725e-02
-8.2776952e-04
5.8782098e-03
2.8401407e-03
-9.9130976e-03
-1.2383248e-02
-5.1950237e-03
-8.5519992e-03
-2.2098046e-02
-4.4271883e-02
-5.4848347e-02
-4.7087890e-02
-3.2742985e-02
-1.9542432e-02
-1.5705158e-02
-4.3481319e-04
2.3731978e-02
3.3099964e-02
2.8277679e-02
1.1357483e-02
5.1482489e-03
1.2516803e-02
1.3582646e-02
6.1700482e-03
-9.6845414e-03
-1.2314003e-02
-2.6840666e-03
-2.2230785e-03
-9.9133104e-03
-2.2859236e-02
-1.9870390e-02
-2.7642731e-03
6.7242365e-03
6.9384323e-03
-2.5259142e-03
8.6690728e-05
1.5971692e-02
2.5610909e-02
2.6648273e-02
1.4979696e-02
1.1642112e-02
2.2460258e-02
3.0852178e-02
3.3364293e-02
2.3492784e-02
2.0874504e-02
3.1064204e-02
3.6617762e-02
3.5460097e-02
2.4119141e-02
2.2831658e-02
3.5513763e-02
4.2606692e-02
4.0757118e-02
2.7997674e-02
2.5606699e-02
3.6522683e-02
4.2236752e-02
4.0014107e-02
2.5734017e-02
1.8658967e-02
2.0109503e-02
1.1333369e-02
-5.2290254e-03
-2.9094148e-02
-4.2872959e-02
-4.7392904e-02
-6.2752351e-02
-8.4607686e-02
-1.0892520e-01
-1.2236674e-01
-1.2981520e-01
-1.5006015e-01
-1.6947564e-01
-1.7482376e-01
-1.5819778e-01
-1.3082385e-01
-1.1202378e-01
-9.2692526e-02
-6.0716977e-02
-2.9487755e-03
6.9711348e-02
1.3678717e-01
1.9491204e-01
2.1946604e-01
2.1322686e-01
2.0151856e-01
1.8822851e-01
1.7681750e-01
1.5569904e-01
1.2519135e-01
8.9821529e-02
4.3929493e-02
1.2031886e-03
-2.7426173e-02
-3.1703220e-02
-2.3485752e-02
-2.4771626e-02
-3.0214369e-02
-3.7258392e-02
-3.5783188e-02
-2.9904533e-02
-3.6325743e-02
-4.2097873e-02
-3.7372078e-02
-1.6979804e-02
6.4651877e-03
1.3504335e-02
8.9738936e-03
-5.9956275e-03
-1.6378982e-02
-2.0159492e-02
-3.3517499e-02
-4.1530828e-02
-4.6089598e-02
-6.0766729e-02
-8.5199356e-02
-1.2174742e-01
-1.5392200e-01
-1.6670146e-01
-1.5790840e-01
-1.4357307e-01
-1.4197096e-01
-1.3189710e-01
-9.3969012e-02
-2.9482166e-02
4.2867298e-02
1.0504939e-01
1.6166953e-01
1.9537729e-01
2.0097874e-01
1.9639167e-01
1.8358986e-01
1.7886390e-01
1.7441284e-01
1.5206985e-01
1.1855640e-01
7.4381466e-02
3.9940381e-02
2.5453192e-02
1.9867260e-02
1.1770112e-02
-1.0765751e-02
-2.9714064e-02
-3.6127408e-02
-3.7481716e-02
-4.2911766e-02
-6.4128093e-02
-8.1652946e-02
-7.9634655e-02
-6.0425702e-02
-3.9139561e-02
-3.2195885e-02
-1.9046652e-02
5.1239466e-04
5.3759329e-03
-5.3054426e-03
-3.0595881e-02
-5.1659405e-02
-5.7657555e-02
-5.5361033e-02
-5.7185775e-02
-7.6275102e-02
-9.4418100e-02
-9.7389808e-02
-8.9149664e-02
-8.4130791e-02
-9.5630358e-02
-1.0289387e-01
-8.7247281e-02
-4.8370533e-02
-5.7867516e-03
1.9835816e-02
4.7572261e-02
7.5989618e-02
8.6888766e-02
8.5263540e-02
7.5089080e-02
7.3769865e-02
7.8607280e-02
7.4805983e-02
6.1522774e-02
3.5474669e-02
1.8911612e-02
1.6806617e-02
1.4864472e-02
9.0322755e-03
-4.6726167e-03
-3.9525447e-03
1.0256404e-02
1.6500685e-02
1.3622518e-02
-9.1207298e-04
-7.3751268e-03
9.5461923e-04
9.7082077e-03
1.3664277e-02
8.4959630e-03
1.4405947e-02
2.8936830e-02
3.0796329e-02
2.1684461e-02
2.8804904e-03
-6.2272635e-03
-4.5315733e-03
-8.9049103e-03
-2.0888418e-02
-4.3167713e-02
-5.4306667e-02
-4.7783828e-02
-3.8908021e-02
-3.3319483e-02
-3.6840877e-02
-3.1094235e-02
-1.5118721e-02
-7.8263341e-03
-1.0767614e-02
-2.2497262e-02
-2.0306369e-02
-4.3330005e-03
3.2272059e-03
8.0795099e-04
-1.1655878e-02
-1.4617935e-02
-6.4063337e-03
-4.3611504e-03
-6.6846620e-03
-1.2099069e-02
-4.1873879e-03
1.3873517e-02
2.3623165e-02
2.5439675e-02
1.8555961e-02
2.2396268e-02
3.5047568e-02
3.6130415e-02
2.7482245e-02
1.0220061e-02
5.7149640e-03
1.3217674e-02
1.0599970e-02
9.9070956e-04
-1.1802340e-02
-8.5879484e-03
7.3180236e-03
1.3662881e-02
1.2385846e-02
5.2402865e-03
1.1082503e-02
2.8072219e-02
3.6087548e-02
3.5678131e-02
2.6542517e-02
2.9171507e-02
4.2758216e-02
4.6887018e-02
4.1192233e-02
2.6611920e-02
2.8343841e-02
4.4542161e-02
4.8959650e-02
4.1410515e-02
2.3144505e-02
1.5464017e-02
1.9099539e-02
1.2333787e-02
-4.4710585e-03
-2.7387921e-02
-3.5872535e-02
-3.2761786e-02
-3.9822093e-02
-4.9873193e-02
-5.4979883e-02
-4.4239988e-02
-2.8726532e-02
-3.1030744e-02
-4.4889363e-02
-6.2780927e-02
-6.8374998e-02
-6.3683390e-02
-6.6149070e-02
-6.9299600e-02
-6.6842558e-02
-4.7636319e-02
-2.1197163e-02
-7.9104386e-03
-3.9033871e-03
-5.8357676e-03
2.6600276e-03
2.2332659e-02
3.4616064e-02
3.8016795e-02
3.5313122e-02
4.4451102e-02
6.1406608e-02
6.5302622e-02
5.5619914e-02
3.4415385e-02
2.4600713e-02
2.7733296e-02
2.4962351e-02
1.5990179e-02
-4.5285655e-05
-4.1279967e-03
3.3126310e-03
3.4499814e-03
-4.0288324e-03
-1.8964949e-02
-1.9690119e-02
-5.6933325e-03
3.8468983e-03
7.4189809e-03
6.0658330e-04
6.7828186e-04
7.6414748e-03
3.6999521e-03
-1.0196195e-02
-3.2247931e-02
-3.9941300e-02
-3.5333150e-02
-3.9821593e-02
-4.7263350e-02
-5.4119952e-02
-4.7302122e-02
-2.9998589e-02
-2.0111322e-02
-1.5976175e-02
-1.7248623e-02
-6.2529897e-03
1.4783000e-02
2.4370403e-02
2.2598240e-02
9.8786064e-03
7.1424799e-03
1.9165779e-02
2.9421290e-02
3.4079162e-02
3.0421421e-02
3.9404762e-02
5.9641105e-02
6.8860675e-02
6.6609012e-02
5.3983024e-02
5.1782615e-02
5.9433490e-02
5.6776862e-02
4.4237950e-02
2.1815438e-02
9.4973579e-03
7.2401650e-03
-4.4978343e-03
-1.7240261e-02
-2.2049852e-02
-6.6064577e-03
1.8645117e-02
3.1566360e-02
3.1871144e-02
1.8488215e-02
9.6285483e-03
5.3882702e-03
-1.2619223e-02
-3.2787428e-02
-4.2406847e-02
-3.0057527e-02
-8.5791659e-03
-9.6255127e-04
-5.0042194e-03
-1.9949864e-02
-3.0821701e-02
-3.7963320e-02
-5.8590601e-02
-7.6978755e-02
-8.2068665e-02
-7.5202330e-02
-7.0371056e-02
-8.4507517e-02
-9.6329189e-02
-8.4961129e-02
-5.1771466e-02
-1.5719275e-02
6.4959071e-03
2.3520429e-02
4.2359569e-02
7.3091917e-02
1.0684150e-01
1.2621416e-01
1.3416320e-01
1.2685833e-01
1.1852734e-01
1.1157719e-01
9.0712748e-02
6.2171506e-02
3.1629233e-02
1.3770382e-02
7.9800768e-04
-2.7999537e-02
-5.6016975e-02
-6.9711951e-02
-6.7106363e-02
-6.4332817e-02
-8.0906064e-02
-9.7667027e-02
-9.9417336e-02
-8.7932322e-02
-7.8358096e-02
-8.7494785e-02
-9.7076266e-02
-9.3581209e-02
-8.1132748e-02
-7.3725269e-02
-8.4480010e-02
-9.3194256e-02
-8.4482241e-02
-5.9330920e-02
-3.4375218e-02
-3.3222191e-02
-3.9153014e-02
-2.4811687e-02
1.6564530e-02
6.2849430e-02
9.2027676e-02
1.1912489e-01
1.4433888e-01
1.6170647e-01
1.7473227e-01
1.7973384e-01
1.8513271e-01
1.8425697e-01
1.7370977e-01
1.5761933e-01
1.2917665e-01
1.0511673e-01
8.8199768e-02
6.7535492e-02
3.9192768e-02
-3.4816144e-03
-4.2877485e-02
-6.2278387e-02
-6.0100742e-02
-5.5917857e-02
-7.2999415e-02
-9.2766578e-02
-9.7810661e-02
-9.0389077e-02
-8.7474147e-02
-1.0635699e-01
-1.2621035e-01
-1.3047385e-01
-1.2193511e-01
-1.1589404e-01
-1.2905598e-01
-1.4117090e-01
-1.3808709e-01
-1.2634657e-01
-1.1972889e-01
-1.3074118e-01
-1.3810737e-01
-1.1957506e-01
-7.2888055e-02
-1.8621312e-02
2.2753463e-02
7.0846086e-02
1.2650541e-01
1.7123967e-01
2.0258423e-01
2.1436781e-01
2.2244452e-01
2.2955089e-01
2.2030797e-01
1.9851392e-01
1.6675881e-01
1.4324468e-01
1.2291503e-01
8.4706966e-02
3.1067482e-02
-3.6696198e-02
-9.6389915e-02
-1.2739931e-01
-1.3237798e-01
-1.3231217e-01
-1.4598950e-01
-1.5513989e-01
-1.5001981e-01
-1.3777183e-01
-1.3021793e-01
-1.3970181e-01
-1.4505892e-01
-1.3089348e-01
-1.0220295e-01
-7.2405531e-02
-5.6850436e-02
-3.6344383e-02
-4.8301204e-03
2.1888724e-02
4.0390018e-02
4.9810223e-02
7.1007381e-02
9.9702101e-02
1.1263504e-01
1.1199920e-01
1.0072771e-01
1.0228279e-01
1.1585040e-01
1.1745415e-01
1.0808966e-01
8.8901133e-02
7.8280249e-02
7.5029148e-02
6.0502244e-02
3.7437295e-02
7.8548072e-03
-6.9995097e-03
-8.0049354e-03
-1.6528275e-02
-3.3143383e-02
-5.8349687e-02
-7.1933600e-02
-6.4162162e-02
-4.6403152e-02
-3.1254036e-02
-2.9510480e-02
-1.8236525e-02
3.6418712e-03
1.5542025e-02
1.7878534e-02
1.0591181e-02
1.3265313e-02
2.6204622e-02
3.0142969e-02
2.6313823e-02
1.6352474e-02
1.9884668e-02
3.7124474e-02
4.9322798e-02
5.6234325e-02
5.7394109e-02
7.1630552e-02
9.8529652e-02
1.1705643e-01
1.2413161e-01
1.1742039e-01
1.1602106e-01
1.2067853e-01
1.1148586e-01
8.8539886e-02
5.4703849e-02
3.0527179e-02
2.0659332e-02
1.0048932e-02
-9.0824779e-03
-4.2743993e-02
-7.3118259e-02
-8.6423391e-02
-8.6119089e-02
-8.4737372e-02
-9.5096665e-02
-1.0320864e-01
-9.9689003e-02
-8.9948433e-02
-8.4373069e-02
-9.2120371e-02
-9.8612985e-02
-9.4553167e-02
-8.4520446e-02
-7.3915922e-02
-7.4939232e-02
-8.5063127e-02
-9.1409230e-02
-8.9986888e-02
-8.9191694e-02
-9.8518975e-02
-1.0649828e-01
-1.0681851e-01
-1.0533979e-01
-1.0560498e-01
-1.1011845e-01
-1.0733829e-01
-9.5318441e-02
-8.1760590e-02
-6.9515040e-02
-6.1102438e-02
-4.1276093e-02
-7.7953867e-03
2.7052042e-02
5.7640025e-02
8.0128792e-02
1.1300671e-01
1.5490805e-01
1.8745942e-01
2.0931963e-01
2.0968647e-01
1.9980500e-01
1.8941369e-01
1.6656411e-01
1.3067201e-01
8.4275717e-02
4.9045266e-02
3.2825808e-02
2.2985414e-02
9.9751408e-03
-1.4124274e-02
-2.8685478e-02
-3.2014920e-02
-4.3208189e-02
-6.5861405e-02
-1.0110805e-01
-1.2774112e-01
-1.4046119e-01
-1.5414650e-01
-1.6872581e-01
-1.8229130e-01
-1.7988440e-01
-1.6081542e-01
-1.3903227e-01
-1.2117832e-01
-1.1523221e-01
-1.0496171e-01
-8.0178016e-02
-5.0438274e-02
-2.4910408e-02
-1.0276726e-02
1.5434057e-02
5.0656968e-02
7.3452684e-02
8.5076106e-02
8.5413334e-02
9.3831828e-02
1.1139652e-01
1.1822862e-01
1.1497479e-01
1.0329854e-01
1.0386213e-01
1.1683789e-01
1.2189256e-01
1.1816544e-01
1.0503363e-01
1.0228796e-01
1.1194359e-01
1.1627691e-01
1.1488545e-01
1.0033121e-01
8.4819840e-02
7.4112500e-02
5.6388144e-02
3.3299302e-02
4.6408877e-03
-1.0575652e-02
-1.5011770e-02
-2.9488221e-02
-5.0693665e-02
-7.8477797e-02
-9.3773641e-02
-9.3188574e-02
-9.4512832e-02
-9.8627199e-02
-1.1674010e-01
-1.3757743e-01
-1.4897710e-01
-1.6146190e-01
-1.7488160e-01
-1.8957039e-01
-1.8616394e-01
-1.6198709e-01
-1.3419787e-01
-1.0442272e-01
-7.9430494e-02
-4.1602039e-02
1.4646551e-02
7.3935423e-02
1.3734748e-01
1.8317137e-01
2.0291902e-01
2.1140007e-01
2.1571759e-01
2.2124214e-01
2.0687769e-01
1.6958678e-01
1.2955618e-01
8.9851632e-02
4.9732330e-02
7.8473163e-03
-1.5222046e-02
-1.9362341e-02
-2.4603544e-02
-3.0757272e-02
-3.9025662e-02
-3.0421062e-02
-6.7248098e-03
9.5078828e-03
2.1472723e-02
2.2096598e-02
1.7522930e-02
1.4556055e-02
3.1465593e-03
-1.5101584e-02
-3.8843016e-02
-4.7385876e-02
-3.9845058e-02
-3.6820667e-02
-4.0071149e-02
-5.0070652e-02
-4.5718741e-02
-2.7224440e-02
-1.5815590e-02
-1.2901601e-02
-1.8561433e-02
-9.9905518e-03
1.2784172e-02
2.7815946e-02
3.4825099e-02
3.2727125e-02
4.3101080e-02
6.8335429e-02
8.8580015e-02
1.0292510e-01
9.8714295e-02
8.6375352e-02
7.7741216e-02
6.3769694e-02
4.5437396e-02
1.8214680e-02
-1.6599599e-03
-1.0665128e-02
-2.5032253e-02
-4.3479722e-02
-6.7033419e-02
-7.6406299e-02
-7.1677113e-02
-7.4660143e-02
-8.3917171e-02
-9.6864614e-02
-9.5213586e-02
-8.2069770e-02
-7.7996185e-02
-8.3805691e-02
-1.0158039e-01
-1.0858941e-01
-9.8696641e-02
-8.9111874e-02
-8.0573388e-02
-7.9436399e-02
-7.3014281e-02
-5.6800730e-02
-4.4168130e-02
-3.6434160e-02
-3.6852645e-02
-2.5093526e-02
-5.8929685e-04
1.4263187e-02
2.0739937e-02
2.1738216e-02
3.5832057e-02
6.1531961e-02
8.0465374e-02
9.5021814e-02
9.9311404e-02
1.0579949e-01
1.2354146e-01
1.4185620e-01
1.5865676e-01
1.6085649e-01
1.5705541e-01
1.5958110e-01
1.6113268e-01
1.5901429e-01
1.3974021e-01
1.1473952e-01
9.6476023e-02
7.5164284e-02
4.9652675e-02
2.0158519e-02
8.5332435e-03
1.3155291e-02
1.0368407e-02
-4.3933975e-03
-3.3984222e-02
-5.4711373e-02
-6.3376866e-02
-8.0736105e-02
-1.0745859e-01
-1.4069577e-01
-1.5822964e-01
-1.6202184e-01
-1.7436473e-01
-1.8601215e-01
-1.8601770e-01
-1.6402576e-01
-1.3059102e-01
-1.0718993e-01
-9.1633145e-02
-8.6064708e-02
-7.9176456e-02
-6.6940316e-02
-6.3075251e-02
-6.5868111e-02
-7.1269845e-02
-6.0517775e-02
-3.6734782e-02
-1.9962050e-02
-1.0315778e-02
-7.7419606e-03
8.9757058e-03
4.0004936e-02
6.4790107e-02
8.2409541e-02
8.9868991e-02
1.0552642e-01
1.3035239e-01
1.4538385e-01
1.4950938e-01
1.3991463e-01
1.3733588e-01
1.4351345e-01
1.3901238e-01
1.2512312e-01
1.0154751e-01
8.8075087e-02
8.4332584e-02
6.9500614e-02
4.2853209e-02
3.4859673e-03
-2.6506860e-02
-4.4450846e-02
-6.9631219e-02
-9.5489361e-02
-1.1521248e-01
-1.1486783e-01
-9.9399490e-02
-8.8273501e-02
-8.5863497e-02
-9.4038790e-02
-8.8860955e-02
-7.1644457e-02
-6.7067278e-02
-7.3200721e-02
-8.5423420e-02
-8.0540544e-02
-5.9786409e-02
-4.6852438e-02
-4.2184659e-02
-4.4628779e-02
-3.1984032e-02
-2.9847606e-03
2.0578632e-02
3.8644554e-02
4.4410079e-02
4.8698382e-02
5.8261942e-02
6.0390258e-02
5.4962603e-02
4.0248799e-02
3.3654161e-02
3.7398530e-02
3.6043766e-02
3.1609246e-02
2.3500604e-02
3.1119041e-02
5.4407354e-02
7.2530139e-02
8.2147680e-02
8.0235341e-02
8.8583834e-02
1.0832484e-01
1.1863114e-01
1.2189992e-01
1.1612862e-01
1.1541669e-01
1.2342544e-01
1.2571700e-01
1.1991075e-01
1.0305485e-01
9.5401383e-02
9.9800866e-02
9.7957186e-02
8.7090775e-02
6.4827318e-02
4.7983689e-02
3.5506380e-02
8.9199696e-03
-2.9104972e-02
-7.5999847e-02
-1.1967721e-01
-1.4765755e-01
-1.6086708e-01
-1.5960379e-01
-1.4320780e-01
-1.1373681e-01
-8.4925000e-02
-6.9086099e-02
-6.9928682e-02
-9.0277260e-02
-1.1683777e-01
-1.3978308e-01
-1.6325829e-01
-1.8582197e-01
-2.0488791e-01
-2.1804497e-01
-2.2244269e-01
-2.1710577e-01
-2.0411463e-01
-1.8461112e-01
-1.5562782e-01
-1.2061297e-01
-8.3707696e-02
-5.6239236e-02
-5.0067017e-02
-4.6660359e-02
-2.9081752e-02
3.1236293e-03
3.2365501e-02
4.0418870e-02
4.9449235e-02
7.1225923e-02
9.7821207e-02
1.2205587e-01
1.3103226e-01
1.4149235e-01
1.5747682e-01
1.6157483e-01
1.5212833e-01
1.3006151e-01
1.2102981e-01
1.2415608e-01
1.1412491e-01
9.2946082e-02
6.3728795e-02
4.7197529e-02
4.2497525e-02
2.9433890e-02
9.9714248e-03
-1.4319875e-02
-2.3830863e-02
-2.0522587e-02
-2.4540547e-02
-3.4735542e-02
-4.9733705e-02
-4.6866283e-02
-2.6206004e-02
-1.0342773e-02
7.9350994e-04
6.7350004e-04
1.9860612e-03
1.0190781e-02
1.0098898e-02
3.4236148e-03
-8.5026397e-03
-6.8148641e-03
7.7247358e-03
1.4830737e-02
1.4143475e-02
4.7440723e-03
7.4536650e-03
2.3220957e-02
3.2873089e-02
3.6521110e-02
3.2855212e-02
4.2936440e-02
6.4724133e-02
7.4941239e-02
7.4883383e-02
6.4692728e-02
6.4029105e-02
7.3333805e-02
7.3123473e-02
6.4234429e-02
4.6337830e-02
3.9834746e-02
4.5009070e-02
4.1249146e-02
2.8925555e-02
8.7257817e-03
8.0412684e-04
4.2411209e-03
-1.0072459e-03
-1.3952740e-02
-3.4473212e-02
-4.3541950e-02
-3.9271632e-02
-3.8926003e-02
-4.6693173e-02
-6.5206321e-02
-7.2326982e-02
-6.4773825e-02
-6.0655623e-02
-6.4314669e-02
-7.9326827e-02
-8.5072518e-02
-7.5578128e-02
-6.7042996e-02
-6.7338485e-02
-8.5335084e-02
-1.0206174e-01
-1.0744275e-01
-1.1342340e-01
-1.2449017e-01
-1.4265737e-01
-1.4497322e-01
-1.2618199e-01
-1.0219041e-01
-8.0047551e-02
-6.7033655e-02
-4.2082846e-02
-3.9970590e-03
2.6138665e-02
4.5666459e-02
5.3698561e-02
7.1335819e-02
9.7666280e-02
1.1268162e-01
1.1851568e-01
1.1631155e-01
1.2212612e-01
1.3296386e-01
1.3414213e-01
1.3129477e-01
1.1924146e-01
1.0966175e-01
1.0696209e-01
9.8502333e-02
8.5267050e-02
6.6447884e-02
6.0638634e-02
6.4688963e-02
5.6832726e-02
3.9120926e-02
1.2595482e-02
-3.1218306e-03
-7.8948379e-03
-2.1642259e-02
-4.5136119e-02
-7.8481784e-02
-1.0045734e-01
-1.0228752e-01
-9.5496110e-02
-8.7815726e-02
-8.6129014e-02
-6.7815045e-02
-3.1436127e-02
1.3952913e-03
2.4887266e-02
2.8363798e-02
2.8241462e-02
3.2564487e-02
2.6432703e-02
1.1352478e-02
-1.1229701e-02
-2.0019958e-02
-1.3789781e-02
-1.4163432e-02
-2.1862652e-02
-3.5649850e-02
-3.4905988e-02
-1.9166195e-02
-8.8064472e-03
-5.4130783e-03
-9.6723268e-03
-2.7329920e-03
1.0577187e-02
8.3300480e-03
-5.1037969e-03
-2.7230681e-02
-3.8185740e-02
-2.9758671e-02
-1.3897456e-02
7.1592469e-04
4.3166935e-03
1.6236438e-02
3.6378879e-02
4.4072370e-02
3.9851373e-02
2.5014275e-02
1.9739911e-02
2.7161814e-02
3.1515852e-02
2.9442876e-02
1.6419497e-02
1.3597475e-02
2.4263185e-02
2.9439655e-02
2.6148586e-02
1.1903600e-02
6.8469645e-03
1.2885891e-02
1.2618903e-02
6.2120957e-03
-7.4884570e-03
-8.6289223e-03
1.3089054e-02
4.6028516e-02
7.9692057e-02
9.5197392e-02
9.4550067e-02
8.8071551e-02
7.9553031e-02
6.7475378e-02
4.6009416e-02
2.9011876e-02
1.6192974e-02
1.6351373e-04
-2.2915510e-02
-6.2437429e-02
-9.8842222e-02
-1.1267505e-01
-1.0348934e-01
-9.0532906e-02
-9.3960055e-02
-9.5684324e-02
-8.1774621e-02
-5.6337457e-02
-3.4590473e-02
-3.2703104e-02
-3.8423105e-02
-4.0013213e-02
-3.1974832e-02
-2.5469297e-02
-4.3061350e-02
-7.1403408e-02
-8.8960220e-02
-8.9104567e-02
-8.5522136e-02
-9.5534270e-02
-1.0404421e-01
-9.8559919e-02
-7.8679716e-02
-5.6880852e-02
-4.9087107e-02
-4.6758428e-02
-4.3207932e-02
-2.7660344e-02
-4.3040216e-03
1.0132980e-02
2.2997831e-02
4.0898657e-02
7.7349815e-02
1.2827938e-01
1.7490145e-01
2.1425624e-01
2.2646602e-01
2.1677775e-01
2.0393131e-01
1.8339798e-01
1.5294780e-01
1.0802121e-01
6.9652337e-02
4.4921729e-02
1.6571032e-02
-9.5336196e-03
-2.9672810e-02
-3.3694602e-02
-2.7679148e-02
-3.0463026e-02
-4.2258525e-02
-6.1678620e-02
-6.7572761e-02
-6.2537806e-02
-6.8384641e-02
-8.0580872e-02
-9.4885949e-02
-9.5005011e-02
-8.4301029e-02
-8.2412081e-02
-8.8246427e-02
-1.0068812e-01
-1.0127603e-01
-9.1743415e-02
-9.2290964e-02
-8.9426504e-02
-7.2661466e-02
-3.7871915e-02
3.7795445e-03
3.3605549e-02
5.2066966e-02
5.6636950e-02
6.3878252e-02
7.8306129e-02
8.5092843e-02
8.4242371e-02
7.1875278e-02
6.5550044e-02
6.9130484e-02
6.5688733e-02
5.3503396e-02
3.0394493e-02
1.8094624e-02
2.0106452e-02
1.7412290e-02
7.6319757e-03
-1.0600890e-02
-1.5283510e-02
-5.0459184e-03
-2.4825572e-03
-1.0088784e-02
-2.5374088e-02
-2.6679711e-02
-1.4100147e-02
-7.5820727e-03
-7.3428517e-03
-1.4077697e-02
-9.3037717e-03
7.1265289e-03
1.6794723e-02
2.0541285e-02
1.3883988e-02
1.3939571e-02
2.5795420e-02
3.2970796e-02
3.5178111e-02
3.0806128e-02
3.8498445e-02
5.9542498e-02
7.5777280e-02
8.6434205e-02
8.6104774e-02
9.0952444e-02
1.0449817e-01
1.0220055e-01
7.5962549e-02
3.3474538e-02
2.3534253e-03
-1.7906405e-02
-4.7935603e-02
-8.7349248e-02
-1.3557136e-01
-1.7280269e-01
-1.9541131e-01
-2.1916848e-01
-2.4170145e-01
-2.6156267e-01
-2.6142928e-01
-2.4432204e-01
-2.3061068e-01
-2.1790978e-01
-2.0347091e-01
-1.6692497e-01
-1.0868577e-01
-4.8731022e-02
1.3744495e-02
6.9103548e-02
1.1922010e-01
1.6786287e-01
2.1190423e-01
2.5656317e-01
2.8600137e-01
2.9578419e-01
2.9688416e-01
2.9510507e-01
2.9661677e-01
2.8172327e-01
2.4537830e-01
2.0326179e-01
1.6029455e-01
1.2081137e-01
7.8636955e-02
3.9379934e-02
1.8364660e-03
-4.0917605e-02
-8.2170298e-02
-1.2077081e-01
-1.3757853e-01
-1.3580370e-01
-1.3529197e-01
-1.3487294e-01
-1.3556652e-01
-1.1912476e-01
-8.7108922e-02
-6.2695663e-02
-4.8385665e-02
-4.1105766e-02
-1.7289138e-02
2.0558274e-02
4.7832836e-02
6.0926700e-02
5.6971953e-02
5.7559051e-02
6.6219734e-02
6.4781916e-02
5.0765196e-02
2.0550856e-02
-4.1680042e-03
-7.5580642e-03
2.7796696e-03
1.1095196e-02
3.4322157e-03
2.3153213e-03
1.1634931e-02
1.1498539e-02
-4.0163858e-03
-3.9016302e-02
-7.4051831e-02
-9.1405113e-02
-9.0050287e-02
-8.6481312e-02
-1.0164991e-01
-1.1397171e-01
-1.0242721e-01
-7.1132613e-02
-3.8550824e-02
-2.1307212e-02
-3.9868822e-04
2.3275567e-02
3.0035490e-02
2.1699051e-02
-1.3519564e-04
-1.6449934e-02
-2.3412939e-02
-3.5289660e-02
-5.6192781e-02
-9.2184025e-02
-1.2421225e-01
-1.3083531e-01
-1.1020776e-01
-8.3115535e-02
-7.0212059e-02
-5.1876042e-02
-2.8890785e-02
-1.9683970e-02
-2.4370713e-02
-4.3785460e-02
-6.4184541e-02
-7.8491527e-02
-8.4044754e-02
-8.3926744e-02
-8.9010108e-02
-7.9977878e-02
-5.3584395e-02
-2.3529718e-02
7.5792639e-03
3.6413924e-02
6.8967033e-02
8.9392505e-02
9.2132723e-02
9.5994538e-02
1.0468360e-01
1.1806210e-01
1.1706402e-01
1.0502483e-01
1.0395776e-01
1.1297431e-01
1.3033497e-01
1.3603148e-01
1.2458322e-01
1.0990016e-01
9.8438871e-02
9.5482427e-02
7.7474144e-02
4.4553871e-02
2.2258652e-02
1.2968010e-02
1.6461458e-02
1.1967838e-02
-3.6251533e-03
-1.1597693e-02
-1.0887729e-02
-2.9006197e-03
-9.3196542e-03
-2.9487258e-02
-4.3561462e-02
-5.1533094e-02
-5.3515286e-02
-6.2561770e-02
-7.0405945e-02
-6.5110001e-02
-5.4938786e-02
-4.0479305e-02
-4.0087383e-02
-4.7629704e-02
-4.2486835e-02
-3.1241228e-02
-1.9008817e-02
-1.9659419e-02
-2.4070229e-02
-1.7062602e-02
-5.0397254e-03
1.1286559e-02
2.0656445e-02
3.2250809e-02
5.6994007e-02
8.7299563e-02
1.2390956e-01
1.4811573e-01
1.5805940e-01
1.6841003e-01
1.7743626e-01
1.8488841e-01
1.8128294e-01
1.6991651e-01
1.5849978e-01
1.4542013e-01
1.3182476e-01
1.1027248e-01
8.2770191e-02
4.6545067e-02
1.7237604e-03
-3.5356361e-02
-5.8264311e-02
-5.8379883e-02
-4.6004039e-02
-4.0156374e-02
-4.1811155e-02
-5.2717967e-02
-5.7438049e-02
-5.9724342e-02
-7.9354499e-02
-1.1552177e-01
-1.6664841e-01
-2.0986371e-01
-2.3647384e-01
-2.5882742e-01
-2.7640192e-01
-2.8845309e-01
-2.8168533e-01
-2.4858760e-01
-1.9371455e-01
-1.3099058e-01
-7.4698215e-02
-1.1400616e-02
5.2088211e-02
1.0041816e-01
1.3608591e-01
1.5662317e-01
1.8173526e-01
2.1122442e-01
2.2505536e-01
2.2192452e-01
2.0013620e-01
1.8023852e-01
1.6201029e-01
1.2442940e-01
6.8789810e-02
-3.7271639e-03
-7.1504968e-02
-1.1447767e-01
-1.3449788e-01
-1.4914828e-01
-1.7453824e-01
-1.9036120e-01
-1.8968919e-01
-1.8345412e-01
-1.7781173e-01
-1.7977395e-01
-1.7666111e-01
-1.6338037e-01
-1.4028049e-01
-1.1186983e-01
-8.8269846e-02
-4.7442999e-02
7.4888146e-03
5.0734116e-02
8.3035428e-02
1.0749235e-01
1.3491848e-01
1.5611463e-01
1.6333752e-01
1.6682037e-01
1.6291624e-01
1.5513106e-01
1.3087320e-01
8.8604501e-02
4.4556947e-02
-7.6674527e-04
-2.9849998e-02
-4.7073392e-02
-6.9199017e-02
-9.1815853e-02
-1.1455257e-01
-1.2155741e-01
-1.1791344e-01
-1.1840447e-01
-1.1327106e-01
-9.7589365e-02
-6.9490076e-02
-4.8144844e-02
-3.4280796e-02
-7.7912914e-03
3.2123947e-02
8.3369086e-02
1.2388639e-01
1.5229379e-01
1.8896011e-01
2.2232774e-01
2.3506739e-01
2.1913367e-01
1.9200597e-01
1.7479768e-01
1.6717699e-01
1.6627476e-01
1.4732248e-01
1.0951800e-01
7.5375775e-02
4.6770495e-02
4.1334386e-02
5.4906465e-02
6.7816262e-02
8.1241624e-02
9.2857369e-02
9.9192578e-02
8.6582241e-02
6.4093727e-02
4.4292451e-02
1.8597144e-02
-1.5899609e-02
-6.6185193e-02
-1.1152989e-01
-1.4518518e-01
-1.8712295e-01
-2.2525882e-01
-2.4503964e-01
-2.3887436e-01
-2.1938463e-01
-2.0599909e-01
-1.9769064e-01
-1.9248149e-01
-1.7092337e-01
-1.3675561e-01
-1.1196182e-01
-9.5421049e-02
-8.5507987e-02
-6.2276259e-02
-2.5846835e-02
4.0562737e-03
2.5830037e-02
3.7728402e-02
5.9634413e-02
9.1563363e-02
1.1376245e-01
1.2598912e-01
1.2525037e-01
1.3017635e-01
1.4210600e-01
1.4257595e-01
1.3188888e-01
1.0745699e-01
8.9315334e-02
8.0311818e-02
6.0983187e-02
2.8408894e-02
-1.8929248e-02
-5.9271790e-02
-9.2876099e-02
-1.3845187e-01
-1.7352685e-01
-1.7705883e-01
-1.4774798e-01
-1.0844002e-01
-8.1560584e-02
-6.6472907e-02
-6.2136690e-02
-4.5753753e-02
-1.7620933e-02
1.2534562e-03
1.0820186e-02
9.0638065e-03
1.6096515e-02
3.2238218e-02
3.7675309e-02
3.5234637e-02
2.5432518e-02
2.6514782e-02
3.7276209e-02
3.7636803e-02
2.9096138e-02
1.2567830e-02
9.1446109e-03
1.8374339e-02
1.9013226e-02
1.1376706e-02
-5.5766690e-03
-1.1875948e-02
-5.5458734e-03
-5.4857256e-03
-1.1497958e-02
-2.4427463e-02
-2.2878705e-02
-5.8959688e-03
3.5037522e-03
4.4183488e-03
-1.1985212e-03
9.1950376e-03
3.7262488e-02
6.3022211e-02
8.5311700e-02
1.0168818e-01
1.2718668e-01
1.6139923e-01
1.9029530e-01
2.1279365e-01
2.2150981e-01
2.2563270e-01
2.2265539e-01
2.0513496e-01
1.8944857e-01
1.8358292e-01
1.8885656e-01
1.9308536e-01
1.8804439e-01
1.7507210e-01
1.4794927e-01
1.2030213e-01
9.9060587e-02
7.6247253e-02
4.4166601e-02
-5.5515094e-03
-6.1689954e-02
-1.1334393e-01
-1.6112876e-01
-2.1409147e-01
-2.8164863e-01
-3.5663857e-01
-4.3003450e-01
-5.0063992e-01
-5.7347585e-01
-6.5254168e-01
-7.3421190e-01
-8.1564895e-01
-8.9567864e-01
-9.7536883e-01
-1.0552069e+00
-1.1259020e+00
-1.1757357e+00
-1.1982978e+00
-1.1968723e+00
-1.1730438e+00
-1.1102203e+00
-9.9017352e-01
-8.0457765e-01
-5.6759042e-01
