2.6356042e-02
-7.4290864e-01
-1.2729127e+00
-1.4480138e+00
-1.2872876e+00
-8.8656916e-01
-2.1346119e-01
8.4709918e-01
2.1907314e+00
3.3232194e+00
3.6123856e+00
2.8041820e+00
1.2645413e+00
-3.2156608e-01
-1.4812314e+00
-2.1601633e+00
-2.4869466e+00
-2.5163237e+00
-2.2532779e+00
-1.7289005e+00
-9.8329201e-01
-9.4916566e-03
1.2124545e+00
2.5350111e+00
3.4528481e+00
3.3171257e+00
2.0687097e+00
4.4034701e-01
-8.2367952e-01
-1.5034849e+00
-1.6947722e+00
-1.5685695e+00
-1.3381291e+00
-1.1346547e+00
-8.6333863e-01
-4.0487494e-01
1.5090781e-01
5.2510043e-01
5.1357581e-01
2.4126283e-01
1.1067787e-02
8.5523399e-02
5.7861307e-01
1.2422933e+00
1.5377191e+00
1.1515926e+00
3.2491130e-01
-4.0578440e-01
-7.3582304e-01
-7.1431068e-01
-5.4676331e-01
-4.4291769e-01
-5.0845724e-01
-7.1602393e-01
-9.5746326e-01
-1.1296044e+00
-1.1776386e+00
-1.0974678e+00
-9.3098231e-01
-7.4881825e-01
-5.7691664e-01
-2.9507642e-01
3.3001028e-01
1.4096344e+00
2.6428112e+00
3.3059432e+00
2.8473532e+00
1.5462756e+00
2.7492345e-01
-3.2367310e-01
-2.1628286e-01
1.6025656e-01
2.1566703e-01
-3.4909463e-01
-1.3073642e+00
-2.1815753e+00
-2.6598664e+00
-2.6929223e+00
-2.3352430e+00
-1.6362599e+00
-6.4254735e-01
6.2805631e-01
2.1851676e+00
3.8240996e+00
4.8996434e+00
4.6439249e+00
2.9597300e+00
6.7474515e-01
-1.2398663e+00
-2.3575072e+00
-2.7310966e+00
-2.6676250e+00
-2.5094608e+00
-2.3549710e+00
-2.0437096e+00
-1.4089392e+00
-4.1630226e-01
8.6666266e-01
2.2345681e+00
3.2204534e+00
3.2276305e+00
2.1135983e+00
4.4736004e-01
-1.0130424e+00
-1.8721260e+00
-2.1003847e+00
-1.7812080e+00
-1.0210695e+00
4.6413273e-02
1.1471900e+00
1.8232969e+00
1.7384662e+00
1.0305153e+00
1.9005831e-01
-4.2172844e-01
-7.6645988e-01
-9.3674906e-01
-9.4928983e-01
-7.7068488e-01
-5.0708239e-01
-3.2845469e-01
-2.3436803e-01
-1.7328416e-01
-1.6469459e-01
-2.3393383e-01
-3.6596804e-01
-4.7960457e-01
-4.4104639e-01
-1.6153076e-01
2.2722072e-01
4.2717789e-01
3.4043685e-01
2.0124508e-01
3.0415356e-01
7.9664800e-01
1.5777262e+00
2.2031072e+00
2.1168907e+00
1.2582919e+00
1.4915145e-01
-6.9281596e-01
-1.0510734e+00
-9.5002335e-01
-6.7435672e-01
-5.7813694e-01
-7.1370623e-01
-8.8878456e-01
-9.3817571e-01
-8.1837775e-01
-5.9299941e-01
-4.0025278e-01
-3.6080003e-01
-4.7122551e-01
-6.1063452e-01
-6.5919478e-01
-5.8026590e-01
-3.7596298e-01
-9.2735607e-03
6.1783174e-01
1.5113377e+00
2.3706990e+00
2.6307463e+00
1.9901521e+00
8.3339476e-01
-2.1172665e-01
-8.6804282e-01
-1.2297478e+00
-1.5568924e+00
-1.9916153e+00
-2.3719155e+00
-2.4405396e+00
-2.0543988e+00
-1.1661320e+00
2.2069740e-01
2.0388451e+00
3.9796050e+00
5.2380311e+00
4.8926787e+00
2.9622780e+00
5.4788193e-01
-1.3185249e+00
-2.3399370e+00
-2.6274609e+00
-2.3862657e+00
-1.8283918e+00
-1.1930992e+00
-7.5536249e-01
-6.6584280e-01
-8.2388205e-01
-9.3280627e-01
-7.3294374e-01
-1.6951401e-01
7.1137676e-01
1.7755752e+00
2.6395759e+00
2.7391204e+00
1.9068574e+00
6.7648634e-01
-4.2008256e-01
-1.2734513e+00
-1.9059433e+00
-2.2951621e+00
-2.4116279e+00
-2.2635969e+00
-1.8540647e+00
-1.1478254e+00
-1.1397026e-01
1.2105792e+00
2.6588579e+00
3.7655748e+00
3.9261732e+00
2.9820032e+00
1.4097908e+00
-1.2184842e-01
-1.2370591e+00
-1.9373089e+00
-2.3749906e+00
-2.5881064e+00
-2.4582322e+00
-1.8716799e+00
-8.2897988e-01
5.6496540e-01
2.0504810e+00
3.0785891e+00
2.9926270e+00
1.6848885e+00
-1.7628692e-01
-1.7774888e+00
-2.7027882e+00
-2.9104876e+00
-2.5054212e+00
-1.6131970e+00
-3.3018970e-01
1.2661112e+00
2.9783375e+00
4.2822140e+00
4.4442394e+00
3.1479711e+00
9.3821622e-01
-1.2032091e+00
-2.6334422e+00
-3.2231583e+00
-3.1068698e+00
-2.5505551e+00
-1.8321998e+00
-1.0271288e+00
-1.3113776e-02
1.2153595e+00
2.2688462e+00
2.5182823e+00
1.7360296e+00
4.5832306e-01
-5.3704933e-01
-8.5587529e-01
-4.8152179e-01
4.3373753e-01
1.3971086e+00
1.6079705e+00
7.4632571e-01
-6.8835360e-01
-1.9467909e+00
-2.5489377e+00
-2.3754132e+00
-1.6112376e+00
-6.4065330e-01
1.7344725e-01
6.8927827e-01
9.2487555e-01
8.3685731e-01
3.8660602e-01
-2.3128509e-01
-6.3927692e-01
-5.3578196e-01
1.5192991e-01
1.2661655e+00
2.4036982e+00
3.0173150e+00
2.7610967e+00
1.7239086e+00
3.0319938e-01
-1.1340577e+00
-2.3740563e+00
-3.2150208e+00
-3.4773523e+00
-3.1347469e+00
-2.2902673e+00
-1.0500557e+00
4.4717048e-01
1.9008825e+00
2.8738684e+00
3.0793295e+00
2.6209997e+00
1.8256079e+00
9.8554428e-01
2.9624957e-01
-1.6735100e-01
-4.6952529e-01
-7.2904579e-01
-9.7801283e-01
-1.1581578e+00
-1.2433388e+00
-1.2487554e+00
-1.1669934e+00
-9.9022211e-01
-7.6494824e-01
-5.0464776e-01
-7.9758863e-02
6.3656262e-01
1.5191400e+00
2.1508089e+00
2.1415218e+00
1.4493573e+00
3.2818586e-01
-8.4198928e-01
-1.6843839e+00
-1.9705800e+00
-1.6802838e+00
-9.3892682e-01
4.6628541e-02
9.5114297e-01
1.4154401e+00
1.3547615e+00
1.0230347e+00
6.9939350e-01
3.9723137e-01
-3.6641264e-02
-5.6997455e-01
-9.4561443e-01
-9.7364568e-01
-6.6397354e-01
-1.0569208e-01
5.6948749e-01
1.0890704e+00
1.1149481e+00
5.4958881e-01
-3.4013015e-01
-1.1928062e+00
-1.8099994e+00
-2.1169183e+00
-2.0657035e+00
-1.6485214e+00
-8.6116675e-01
3.4333714e-01
1.9003606e+00
3.3929884e+00
4.0650951e+00
3.4229032e+00
1.8370789e+00
1.3109818e-01
-1.1842033e+00
-2.0298466e+00
-2.5091786e+00
-2.7178917e+00
-2.6782438e+00
-2.3748271e+00
-1.8000583e+00
-9.3605700e-01
2.4123999e-01
1.6640319e+00
2.9788015e+00
3.5728636e+00
3.0362048e+00
1.6039832e+00
2.0261938e-02
-1.0537937e+00
-1.3696346e+00
-1.0694657e+00
-6.7733688e-01
-7.2883330e-01
-1.1597279e+00
-1.4748627e+00
-1.3253876e+00
-6.1896024e-01
5.5010697e-01
1.7905767e+00
2.4099419e+00
1.9113796e+00
5.7572140e-01
-8.0450908e-01
-1.6585951e+00
-1.8355103e+00
-1.3753573e+00
-2.9221151e-01
1.3382940e+00
3.0065619e+00
3.7883733e+00
3.1199547e+00
1.4293806e+00
-2.9055881e-01
-1.3711514e+00
-1.7309976e+00
-1.6727307e+00
-1.5549713e+00
-1.4820412e+00
-1.3571243e+00
-1.1251343e+00
-8.3424656e-01
-5.4677117e-01
-3.5071156e-01
-3.3836573e-01
-5.0009337e-01
-7.0123581e-01
-7.8933533e-01
-6.8202778e-01
-3.5187111e-01
1.9033556e-01
9.1019208e-01
1.7122049e+00
2.3956928e+00
2.6755387e+00
2.3188159e+00
1.3347349e+00
2.5977725e-02
-1.1267778e+00
-1.7363266e+00
-1.7173728e+00
-1.2831545e+00
-8.0921990e-01
-5.7029911e-01
-5.7974629e-01
-6.6601458e-01
-5.9831252e-01
-2.2609223e-01
3.5927161e-01
7.9709678e-01
7.8044258e-01
4.9400270e-01
4.6086611e-01
9.5102477e-01
1.7276501e+00
2.2963883e+00
2.2450473e+00
1.3763166e+00
-1.2081848e-01
-1.6418069e+00
-2.6006209e+00
-2.8345432e+00
-2.6071327e+00
-2.2882734e+00
-2.0027323e+00
-1.6175594e+00
-9.0917550e-01
3.3080019e-01
2.1286238e+00
4.0618360e+00
5.1431090e+00
4.5268378e+00
2.4874176e+00
1.3394527e-01
-1.6575161e+00
-2.6566700e+00
-3.0046655e+00
-2.9302728e+00
-2.5918753e+00
-1.9901048e+00
-1.0551464e+00
2.0611751e-01
1.5390516e+00
2.4180195e+00
2.3580027e+00
1.3142360e+00
-1.4403488e-01
-1.2315559e+00
-1.5039397e+00
-8.8263438e-01
4.8198649e-01
2.1215293e+00
3.2426199e+00
3.1750250e+00
1.9676563e+00
3.4320685e-01
-9.6820785e-01
-1.7132128e+00
-2.0255026e+00
-2.1040999e+00
-2.0574108e+00
-1.9209330e+00
-1.7252630e+00
-1.5238241e+00
-1.3305415e+00
-1.0699293e+00
-6.2863659e-01
3.9797533e-02
7.9776850e-01
1.3635661e+00
1.5852023e+00
1.6331480e+00
1.7980291e+00
2.1075125e+00
2.2657459e+00
1.9430027e+00
1.0304685e+00
-3.0941950e-01
-1.6605893e+00
-2.5119558e+00
-2.5545575e+00
-1.8088876e+00
-5.9843532e-01
5.1798027e-01
9.5974924e-01
4.5821065e-01
-6.5140630e-01
-1.6091914e+00
-1.8334394e+00
-1.1654721e+00
2.4744031e-01
1.9952195e+00
3.4324147e+00
3.9582749e+00
3.3602077e+00
1.9101154e+00
2.0528209e-01
-1.2031386e+00
-2.0372145e+00
-2.2701396e+00
-2.0907631e+00
-1.8512899e+00
-1.8233081e+00
-1.9216881e+00
-1.8164075e+00
-1.2573016e+00
-1.9354020e-01
1.2499694e+00
2.6930814e+00
3.4655670e+00
3.0341621e+00
1.5998368e+00
1.0595847e-02
-9.5439205e-01
-1.0266418e+00
-3.6063101e-01
6.0099857e-01
1.2299312e+00
1.0621690e+00
1.8461078e-01
-9.0621995e-01
-1.7903503e+00
-2.3205175e+00
-2.5030731e+00
-2.3616436e+00
-1.9240182e+00
-1.1899431e+00
-9.8116895e-02
1.3566663e+00
2.9371890e+00
3.9841836e+00
3.8190595e+00
2.5488686e+00
9.3347457e-01
-4.0005365e-01
-1.2808702e+00
-1.8169234e+00
-2.1322410e+00
-2.2561489e+00
-2.1621554e+00
-1.8337771e+00
-1.2831185e+00
-5.4093072e-01
3.4562899e-01
1.1857249e+00
1.5833189e+00
1.2463763e+00
3.7943390e-01
-4.0251222e-01
-5.6589246e-01
6.0748947e-02
1.2846724e+00
2.4730772e+00
2.8048581e+00
2.0184451e+00
6.3889768e-01
-6.0532879e-01
-1.3752563e+00
-1.7700166e+00
-2.0069507e+00
-2.1770408e+00
-2.2287339e+00
-2.0844393e+00
-1.7211830e+00
-1.1513361e+00
-3.9770191e-01
5.3409618e-01
1.6988300e+00
3.0664156e+00
4.2670609e+00
4.6053267e+00
3.6187842e+00
1.6439537e+00
-4.3603042e-01
-1.9082908e+00
-2.5676097e+00
-2.5874227e+00
-2.2248807e+00
-1.6504043e+00
-9.9711494e-01
-4.4622893e-01
-1.2378245e-01
4.8305026e-02
1.4845597e-01
1.0598267e-01
-1.3048801e-01
-4.6957500e-01
-7.3362192e-01
-7.5878209e-01
-4.3909091e-01
2.6306999e-01
1.2858971e+00
2.3478835e+00
2.9557656e+00
2.6716791e+00
1.5003976e+00
-3.6671471e-02
-1.3421027e+00
-2.1108346e+00
-2.3400080e+00
-2.2456699e+00
-2.1351681e+00
-2.1742494e+00
-2.2272164e+00
-1.9839492e+00
-1.2366620e+00
2.5433354e-02
1.7158035e+00
3.6809803e+00
5.3564929e+00
5.6904148e+00
4.1904481e+00
1.6790371e+00
-5.8148708e-01
-1.9653738e+00
-2.4875369e+00
-2.4177305e+00
-2.0749673e+00
-1.6938032e+00
-1.3698767e+00
-1.1014727e+00
-8.4704605e-01
-5.5636544e-01
-2.0770339e-01
1.6358096e-01
6.1413518e-01
1.2631549e+00
1.8560386e+00
1.7865899e+00
9.3440601e-01
-6.2207309e-02
-6.5763091e-01
-8.2270161e-01
-7.0977801e-01
-4.3466041e-01
-1.2818806e-01
3.1088989e-02
-7.3236686e-02
-4.0632072e-01
-8.1468787e-01
-1.1234945e+00
-1.2169194e+00
-1.0230302e+00
-4.6511962e-01
3.9309145e-01
1.2581154e+00
1.7453418e+00
1.6461115e+00
1.1056521e+00
4.1600000e-01
-1.8172634e-01
-5.0046669e-01
-4.6460028e-01
-1.3293451e-01
3.9627199e-01
1.0241060e+00
1.5385710e+00
1.5904233e+00
9.6129166e-01
-1.4260074e-01
-1.2206164e+00
-1.9100989e+00
-2.1743196e+00
-2.1488192e+00
-1.9598546e+00
-1.6642466e+00
-1.2477803e+00
-6.5974676e-01
8.6683647e-02
8.6535365e-01
1.5360425e+00
2.0992987e+00
2.6262358e+00
2.9987265e+00
2.9381033e+00
2.3123271e+00
1.2662805e+00
7.0395472e-02
-1.0438536e+00
-1.9062298e+00
-2.3942867e+00
-2.4677710e+00
-2.2122359e+00
-1.8171970e+00
-1.4652795e+00
-1.2497971e+00
-1.1596147e+00
-1.0891272e+00
-8.8388011e-01
-4.0917008e-01
4.3089077e-01
1.7185305e+00
3.3778556e+00
4.8861684e+00
5.3571325e+00
4.2075538e+00
1.8056082e+00
-7.9134919e-01
-2.7323841e+00
-3.7246871e+00
-3.8869648e+00
-3.5675415e+00
-3.1317254e+00
-2.7288079e+00
-2.1930025e+00
-1.2784292e+00
1.1761788e-01
1.9622607e+00
4.0624635e+00
5.7201870e+00
5.7944961e+00
3.9043638e+00
1.0972859e+00
-1.2749683e+00
-2.6643157e+00
-3.1395285e+00
-2.9353555e+00
-2.3168080e+00
-1.5175848e+00
-7.1597491e-01
-1.2899626e-01
-2.6042125e-02
-4.5338139e-01
-1.0661929e+00
-1.3780360e+00
-1.1005408e+00
-1.8744338e-01
1.2830135e+00
3.0676911e+00
4.4877138e+00
4.5520446e+00
3.0123947e+00
8.3693033e-01
-8.8111904e-01
-1.7786986e+00
-2.0218888e+00
-1.9329961e+00
-1.7535404e+00
-1.5521270e+00
-1.3108237e+00
-1.0326009e+00
-7.5232322e-01
-4.9476328e-01
-2.7394966e-01
-1.1294032e-01
-2.6472247e-02
1.3330041e-02
8.7288182e-02
2.8462708e-01
6.5162365e-01
1.1826128e+00
1.7752259e+00
2.1563754e+00
2.0976017e+00
1.5100630e+00
3.6022592e-01
-1.0305351e+00
-2.0938047e+00
-2.5187321e+00
-2.3553326e+00
-1.8824503e+00
-1.4407846e+00
-1.2079178e+00
-1.0330164e+00
-5.7727277e-01
4.0219679e-01
1.8757139e+00
3.4658790e+00
4.5022283e+00
4.3833343e+00
3.0447798e+00
1.0137441e+00
-9.7725834e-01
-2.4107777e+00
-3.0680837e+00
-2.9484156e+00
-2.2300155e+00
-1.1429504e+00
7.8657629e-02
1.1164395e+00
1.5529259e+00
1.1795964e+00
3.0460844e-01
-5.9955536e-01
-1.2803872e+00
-1.6702607e+00
-1.7795150e+00
-1.6392658e+00
-1.2838191e+00
-7.3534457e-01
2.2670348e-02
1.0512335e+00
2.3347237e+00
3.5277198e+00
3.9183899e+00
3.0549853e+00
1.3721137e+00
-2.2145469e-01
-1.1771596e+00
-1.4865129e+00
-1.4508904e+00
-1.3752908e+00
-1.3210746e+00
-1.1714851e+00
-8.7076271e-01
-4.9238437e-01
-1.0759956e-01
2.0344722e-01
3.1863376e-01
1.9140854e-01
-8.8145369e-02
-4.0409504e-01
-6.9908466e-01
-9.4044507e-01
-1.0782283e+00
-1.0346716e+00
-7.5883661e-01
-2.6646026e-01
3.8028070e-01
1.1116407e+00
1.7919374e+00
2.2115778e+00
2.2186480e+00
1.7775915e+00
9.8594901e-01
6.9969811e-02
-6.7786324e-01
-1.0392518e+00
-1.0068666e+00
-7.5246823e-01
-4.6910580e-01
-2.7300587e-01
-2.4470879e-01
-4.3164818e-01
-7.6306508e-01
-1.0598790e+00
-1.1656554e+00
-1.0444103e+00
-7.3799761e-01
-2.7055980e-01
3.6318840e-01
1.1447739e+00
1.9518626e+00
2.5185437e+00
2.5155571e+00
1.7421521e+00
4.1663541e-01
-8.6367165e-01
-1.6245369e+00
-1.7126435e+00
-1.1807921e+00
-3.8620395e-01
-3.5520863e-02
-4.7523946e-01
-1.1962738e+00
-1.5967375e+00
-1.5040927e+00
-9.3609020e-01
8.2741691e-02
1.4878855e+00
3.0471706e+00
4.1442277e+00
3.9885433e+00
2.5072767e+00
4.9606775e-01
-1.2401340e+00
-2.3513745e+00
-2.7848617e+00
-2.6301871e+00
-2.0785217e+00
-1.3822063e+00
-7.5526708e-01
-3.0055844e-01
-1.3795327e-02
2.0856700e-01
4.7813677e-01
7.9598057e-01
1.0515593e+00
1.1302745e+00
1.0133579e+00
7.3029083e-01
4.5415041e-01
4.3793620e-01
5.7999007e-01
5.1413475e-01
6.9542309e-02
-5.9396515e-01
-1.2059913e+00
-1.6060381e+00
-1.7537162e+00
-1.6594369e+00
-1.3072693e+00
-6.8773761e-01
1.2382987e-01
8.6658023e-01
1.1320221e+00
7.1492595e-01
-9.0711775e-02
-6.6253598e-01
-5.5341530e-01
2.7198220e-01
1.5354787e+00
2.6994685e+00
3.1346589e+00
2.5362054e+00
1.2094199e+00
-1.3159410e-01
-9.4452666e-01
-1.1830673e+00
-1.1513956e+00
-1.1875998e+00
-1.4012070e+00
-1.6588152e+00
-1.7888681e+00
-1.7167396e+00
-1.4471228e+00
-1.0286993e+00
-5.2998723e-01
3.0275251e-02
7.4211900e-01
1.6122664e+00
2.3179838e+00
2.3822534e+00
1.6990747e+00
7.1593975e-01
1.3418840e-02
-7.1398340e-02
4.6079413e-01
1.0699609e+00
9.5393823e-01
-2.0376441e-02
-1.1987728e+00
-1.9309229e+00
-2.0493589e+00
-1.7485993e+00
-1.3261887e+00
-9.9813513e-01
-8.0460090e-01
-6.3934680e-01
-3.5042642e-01
1.6709906e-01
9.2398802e-01
1.7833822e+00
2.4995909e+00
2.8312857e+00
2.6172145e+00
1.8164597e+00
5.9194759e-01
-6.9398290e-01
-1.7011901e+00
-2.2634534e+00
-2.3925077e+00
-2.3006963e+00
-2.2150180e+00
-2.1114494e+00
-1.8375998e+00
-1.2965957e+00
-4.4553329e-01
7.4123979e-01
2.2411594e+00
3.8763574e+00
5.0356385e+00
4.7877147e+00
2.9899948e+00
6.3148464e-01
-1.2996987e+00
-2.4543887e+00
-2.8833590e+00
-2.7974262e+00
-2.4446215e+00
-2.0248056e+00
-1.6348530e+00
-1.2671546e+00
-8.2295316e-01
-9.7515630e-02
1.1048527e+00
2.6995571e+00
3.9570746e+00
3.7685596e+00
2.0564307e+00
6.8207463e-02
-1.1598703e+00
-1.5050087e+00
-1.2972546e+00
-9.5281681e-01
-7.9231541e-01
-9.3020585e-01
-1.2482319e+00
-1.4910826e+00
-1.4534796e+00
-1.0732242e+00
-3.7237948e-01
5.7732381e-01
1.6012826e+00
2.3506801e+00
2.4449302e+00
1.8003065e+00
7.1896892e-01
-3.2955103e-01
-1.0106297e+00
-1.2625227e+00
-1.1838035e+00
-8.7741419e-01
-4.6974737e-01
-1.5048036e-01
-4.6169486e-02
-1.0055283e-01
-1.6564089e-01
-2.5829743e-01
-3.2421246e-01
-2.0044966e-02
7.6880118e-01
1.7327702e+00
2.2815287e+00
1.9121051e+00
8.3766611e-01
-2.0193300e-01
-7.1193254e-01
-7.2819809e-01
-5.6836370e-01
-5.0598163e-01
-5.9914010e-01
-7.2156471e-01
-7.5133929e-01
-7.2952649e-01
-7.7492102e-01
-9.1995812e-01
-1.1154290e+00
-1.2751731e+00
-1.2727148e+00
-9.5651274e-01
-2.2845270e-01
8.8513849e-01
2.1687777e+00
3.0935451e+00
3.0450142e+00
1.9662696e+00
4.8626660e-01
-6.8542394e-01
-1.2445086e+00
-1.2224367e+00
-7.4709597e-01
-1.6281473e-02
6.4556985e-01
8.7681602e-01
5.7202363e-01
2.3244177e-02
-3.9455294e-01
-5.5489057e-01
-5.4564662e-01
-5.3017202e-01
-6.5636285e-01
-9.6999881e-01
-1.3530559e+00
-1.5788354e+00
-1.5176363e+00
-1.1764107e+00
-5.7079505e-01
3.2429994e-01
1.5074499e+00
2.8295175e+00
3.7756914e+00
3.5888871e+00
2.1269413e+00
1.6251674e-01
-1.4676742e+00
-2.4421681e+00
-2.7764739e+00
-2.5827546e+00
-1.9722350e+00
-1.0439054e+00
7.5299335e-02
1.1256546e+00
1.6597699e+00
1.3627848e+00
4.9223009e-01
-2.7519803e-01
-3.9741504e-01
3.0572441e-01
1.6213439e+00
2.7232968e+00
2.6191824e+00
1.2916090e+00
-3.6038157e-01
-1.5694750e+00
-2.1390371e+00
-2.2657656e+00
-2.2432825e+00
-2.2094703e+00
-2.0979365e+00
-1.7996289e+00
-1.2949688e+00
-6.3601516e-01
1.3545925e-01
9.8829643e-01
1.8845913e+00
2.7663230e+00
3.4562541e+00
3.6294751e+00
3.0497064e+00
1.8515878e+00
4.8258539e-01
-6.5084811e-01
-1.4263940e+00
-1.9123399e+00
-2.1300743e+00
-2.0277224e+00
-1.6471456e+00
-1.1585624e+00
-7.4396487e-01
-4.8952423e-01
-3.6159021e-01
-2.6722648e-01
-1.2996769e-01
6.1791760e-02
2.6737881e-01
4.5748692e-01
6.2852825e-01
7.9967908e-01
1.0383524e+00
1.3828751e+00
1.6689668e+00
1.5434447e+00
8.5123323e-01
-1.4715335e-01
-1.0490503e+00
-1.5783891e+00
-1.6527856e+00
-1.4190746e+00
-1.0989662e+00
-7.3480465e-01
-2.8388652e-01
2.2019012e-01
6.8399665e-01
9.5896686e-01
9.2494243e-01
6.9921057e-01
4.8894194e-01
2.9637069e-01
5.2076052e-02
-2.4063451e-01
-5.3433159e-01
-7.5708464e-01
-8.4616385e-01
-7.9861786e-01
-6.6859412e-01
-5.1091310e-01
-3.6896951e-01
-3.0742579e-01
-3.9309243e-01
-5.7137631e-01
-6.2665063e-01
-3.4551368e-01
3.4755378e-01
1.3943385e+00
2.5739082e+00
3.4113374e+00
3.3684733e+00
2.3159156e+00
7.1077200e-01
-7.8225645e-01
-1.8011643e+00
-2.3278428e+00
-2.4156212e+00
-2.1163012e+00
-1.5798381e+00
-1.0338549e+00
-6.0536891e-01
-2.6910467e-01
2.3164909e-02
2.8714416e-01
5.7364406e-01
9.4566552e-01
1.3524416e+00
1.6682557e+00
1.8275530e+00
1.7516773e+00
1.2857969e+00
4.5132093e-01
-3.9675574e-01
-8.9080576e-01
-1.0318461e+00
-1.1123350e+00
-1.3445379e+00
-1.6774816e+00
-1.9194640e+00
-1.9286032e+00
-1.6826876e+00
-1.2273604e+00
-5.9978589e-01
2.5069040e-01
1.4472832e+00
2.9308481e+00
4.1919992e+00
4.4129890e+00
3.2227030e+00
1.2247822e+00
-6.0771381e-01
-1.7479566e+00
-2.1780913e+00
-2.1785286e+00
-2.1229382e+00
-2.2091868e+00
-2.3005620e+00
-2.0816079e+00
-1.4060669e+00
-3.6310648e-01
8.6127447e-01
2.0854187e+00
3.0472137e+00
3.2707179e+00
2.5103925e+00
1.2096019e+00
2.3901889e-02
-7.5095127e-01
-1.1161078e+00
-1.1708958e+00
-1.0431500e+00
-8.6727533e-01
-7.5256255e-01
-7.7727876e-01
-9.6057478e-01
-1.1732462e+00
-1.1768410e+00
-7.9291631e-01
3.3087588e-02
1.2169772e+00
2.4156250e+00
3.0062141e+00
2.5446630e+00
1.3134660e+00
5.0840454e-02
-7.4729292e-01
-1.0442319e+00
-1.0998735e+00
-1.2287418e+00
-1.5366166e+00
-1.8418317e+00
-1.8902043e+00
-1.5969632e+00
-1.0303320e+00
-2.5576560e-01
7.2187827e-01
1.8964977e+00
3.0509200e+00
3.6555110e+00
3.2323042e+00
1.8871298e+00
2.7404822e-01
-1.0125764e+00
-1.7744405e+00
-2.0923585e+00
-2.2272235e+00
-2.4055239e+00
-2.5730654e+00
-2.5467444e+00
-2.2111487e+00
-1.5136052e+00
-4.3379712e-01
9.7751768e-01
2.5392915e+00
3.7968404e+00
4.1259357e+00
3.4199101e+00
2.3499938e+00
1.4591860e+00
5.9346399e-01
-3.9626276e-01
-1.2586329e+00
-1.7196315e+00
-1.7593158e+00
-1.5910554e+00
-1.4585740e+00
-1.4153546e+00
-1.3079155e+00
-9.9101857e-01
-4.6480142e-01
2.3762636e-01
1.1200383e+00
2.0036329e+00
2.3393816e+00
1.7338968e+00
5.3685756e-01
-6.6481975e-01
-1.6079076e+00
-2.2372518e+00
-2.5385256e+00
-2.5162437e+00
-2.1892979e+00
-1.5430598e+00
-5.1048867e-01
9.7914874e-01
2.8641629e+00
4.7064324e+00
5.5901040e+00
4.7580709e+00
2.5031724e+00
-4.3828541e-02
-1.9429058e+00
-2.9172534e+00
-3.1514312e+00
-2.9386576e+00
-2.4523434e+00
-1.7716226e+00
-1.0417235e+00
-4.0701639e-01
1.9743690e-01
8.9122844e-01
1.6222114e+00
2.1019900e+00
1.9327658e+00
1.0715947e+00
-1.3054225e-02
-8.4880699e-01
-1.2882599e+00
-1.3391929e+00
-1.0127965e+00
-3.0278976e-01
6.8597414e-01
1.5450594e+00
1.6988270e+00
9.8299258e-01
-7.4289953e-02
-8.2472350e-01
-1.0556300e+00
-8.4647479e-01
-3.5523032e-01
1.1675230e-01
1.6385036e-01
-2.5298464e-01
-6.6451040e-01
-7.5850825e-01
-6.1842989e-01
-3.7210538e-01
-4.8068020e-02
3.0269017e-01
5.8585051e-01
7.7012152e-01
8.6978181e-01
8.8973219e-01
8.3653249e-01
7.1177090e-01
4.9836553e-01
2.2068492e-01
-6.6896992e-02
-3.7451439e-01
-7.5674981e-01
-1.1556388e+00
-1.3736571e+00
-1.2255829e+00
-7.1537491e-01
-1.6236891e-01
-5.9404551e-02
-5.4668060e-01
-1.2061130e+00
-1.5763764e+00
-1.4827707e+00
-8.9757034e-01
1.8430710e-01
1.7265762e+00
3.5573779e+00
5.0991038e+00
5.4317235e+00
4.1665627e+00
1.9364867e+00
-2.8078601e-01
-1.9147861e+00
-2.8122692e+00
-3.0205011e+00
-2.7161363e+00
-2.2218569e+00
-1.8825998e+00
-1.7925527e+00
-1.7730910e+00
-1.5694761e+00
-1.0167274e+00
-9.4725572e-02
1.0667293e+00
2.0583674e+00
2.3963969e+00
2.0546569e+00
1.4198720e+00
8.7135085e-01
5.2483272e-01
2.1524615e-01
-3.1564321e-01
-1.1037819e+00
-1.8358901e+00
-2.1279395e+00
-1.7899438e+00
-8.2159721e-01
6.8629385e-01
2.5547304e+00
3.8770666e+00
3.3749002e+00
1.3450145e+00
-6.8417653e-01
-1.7979837e+00
-1.9059542e+00
-1.3368253e+00
-7.4116669e-01
-6.5489231e-01
-9.6339971e-01
-1.1981457e+00
-1.0844443e+00
-6.2485378e-01
8.2689163e-02
9.2274035e-01
1.7247736e+00
2.1858901e+00
1.9991168e+00
1.2663113e+00
4.3590067e-01
-1.9542073e-01
-6.0716516e-01
-8.5881689e-01
-9.8868827e-01
-1.0369006e+00
-1.0491187e+00
-1.0330320e+00
-9.9326320e-01
-9.5619884e-01
-9.1170245e-01
-7.8835160e-01
-4.9091329e-01
4.1591842e-02
8.2794785e-01
1.8308782e+00
2.7685797e+00
3.0853490e+00
2.4087611e+00
9.9721984e-01
-4.5104375e-01
-1.4362787e+00
-1.8984335e+00
-2.0088397e+00
-1.9620785e+00
-1.8462262e+00
-1.6123893e+00
-1.1443093e+00
-3.6218075e-01
7.0048847e-01
1.7708031e+00
2.3661483e+00
2.1323600e+00
1.1507974e+00
-8.5411045e-02
-1.0458768e+00
-1.4437343e+00
-1.1760000e+00
-2.9956297e-01
8.1820054e-01
1.4785740e+00
1.1449571e+00
5.4669693e-02
-1.0221382e+00
-1.5011367e+00
-1.2176894e+00
-2.6309721e-01
1.1250784e+00
2.4702796e+00
3.0562836e+00
2.4258701e+00
9.2340535e-01
-5.8913094e-01
-1.5165300e+00
-1.8033724e+00
-1.6669150e+00
-1.3557653e+00
-1.0414616e+00
-8.0451788e-01
-6.7718121e-01
-6.5102250e-01
-6.5911368e-01
-5.6886487e-01
-2.5677007e-01
2.8935548e-01
1.0078750e+00
1.7203903e+00
2.0605790e+00
1.7204981e+00
8.4805777e-01
-4.3968742e-02
-6.9578842e-01
-1.1995890e+00
-1.6365818e+00
-1.9502054e+00
-2.0375063e+00
-1.8469162e+00
-1.3650271e+00
-5.6098634e-01
6.2141817e-01
2.1661306e+00
3.7698251e+00
4.6310096e+00
3.9571303e+00
1.9681967e+00
-2.1919330e-01
-1.6811904e+00
-2.1899573e+00
-2.0050839e+00
-1.4973417e+00
-8.9326339e-01
-3.3434146e-01
-1.0026125e-02
-6.1560304e-03
-1.7465439e-01
-3.6426286e-01
-5.5521361e-01
-7.6849925e-01
-9.9001842e-01
-1.1789329e+00
-1.2939258e+00
-1.2817082e+00
-1.0741422e+00
-6.0425352e-01
1.2793728e-01
1.0363608e+00
1.9696813e+00
2.7332539e+00
3.1887536e+00
3.3471048e+00
3.1071979e+00
2.1533317e+00
5.4599939e-01
-1.1278998e+00
-2.2886391e+00
-2.6677895e+00
-2.3289092e+00
-1.5256924e+00
-6.3425772e-01
-9.6293027e-02
-5.5570686e-02
-2.5254080e-01
-4.0098218e-01
-4.5692154e-01
-5.2813203e-01
-6.9609860e-01
-9.4277206e-01
-1.1584324e+00
-1.1993989e+00
-9.5111322e-01
-3.5107410e-01
6.3362113e-01
1.9706683e+00
3.4112832e+00
4.3641722e+00
4.2061240e+00
2.8529445e+00
8.5723306e-01
-1.0318553e+00
-2.3601357e+00
-3.0989148e+00
-3.4150871e+00
-3.4189444e+00
-3.1221184e+00
-2.4922710e+00
-1.5069223e+00
-1.8919475e-01
1.3922507e+00
3.0621006e+00
4.3125427e+00
4.3672289e+00
2.9624620e+00
8.3798611e-01
-9.6425077e-01
-1.9412386e+00
-2.0918089e+00
-1.6018616e+00
-7.4636161e-01
5.7596742e-02
3.6479717e-01
1.0481500e-01
-3.3822581e-01
-5.0000206e-01
-1.7160062e-01
5.1799530e-01
1.1242181e+00
1.1025320e+00
4.0676963e-01
-3.7887658e-01
-7.5279409e-01
-6.9426303e-01
-4.5109562e-01
-2.8721952e-01
-3.5961939e-01
-6.7210253e-01
-1.0884780e+00
-1.4317521e+00
-1.5853618e+00
-1.4848281e+00
-1.0612415e+00
-2.7080543e-01
8.5517838e-01
2.0972256e+00
3.0064455e+00
3.1452158e+00
2.4454250e+00
1.3645015e+00
5.0857683e-01
7.8023564e-02
-2.2576291e-01
-7.5624597e-01
-1.4507239e+00
-1.9110988e+00
-1.8360476e+00
-1.2326629e+00
-3.4207952e-01
4.7290845e-01
8.3927892e-01
5.8128663e-01
-9.4770947e-02
-7.2386654e-01
-9.2643940e-01
-6.0049551e-01
1.0681644e-01
8.5681220e-01
1.2483290e+00
1.1385682e+00
7.9532857e-01
5.4331879e-01
3.5810957e-01
4.7208177e-05
-5.6142618e-01
-1.0433576e+00
-1.1243817e+00
-6.7654135e-01
2.1246968e-01
1.0831457e+00
1.1963989e+00
3.2211659e-01
-8.8131169e-01
-1.5557018e+00
-1.3617504e+00
-4.7460099e-01
7.0342621e-01
1.6970846e+00
2.0360255e+00
1.4848795e+00
3.2303730e-01
-8.2982443e-01
-1.5229943e+00
-1.6565889e+00
-1.3128232e+00
-6.6103060e-01
7.3110615e-02
6.6128717e-01
9.4901624e-01
9.2268628e-01
7.8150599e-01
7.4606168e-01
6.6476221e-01
1.9742660e-01
-6.5843354e-01
-1.4941581e+00
-1.8932356e+00
-1.7205951e+00
-1.0486274e+00
-1.8204725e-02
1.1888024e+00
2.2392536e+00
2.5907427e+00
1.8635107e+00
3.4331724e-01
-1.1825845e+00
-2.1097479e+00
-2.3279933e+00
-2.0023644e+00
-1.3120808e+00
-3.4263643e-01
7.9393120e-01
1.7782296e+00
2.1570671e+00
1.7393770e+00
8.9178341e-01
1.9741697e-01
-1.1983760e-01
-3.0824680e-01
-7.1040360e-01
-1.3253530e+00
-1.7638655e+00
-1.6471488e+00
-8.9427596e-01
3.5191956e-01
1.7824339e+00
2.8260384e+00
2.8144425e+00
1.6427122e+00
4.0033459e-02
-1.1379965e+00
-1.5685725e+00
-1.3732296e+00
-8.1007647e-01
-1.3416968e-01
3.6973604e-01
4.2548254e-01
-2.3464052e-03
-6.3513683e-01
-1.0900763e+00
-1.1243609e+00
-7.3477076e-01
-4.5050354e-02
7.5930403e-01
1.3493127e+00
1.4036201e+00
9.8246140e-01
5.0105137e-01
2.2101878e-01
8.0327092e-02
-1.0417727e-01
-4.9620697e-01
-1.0866514e+00
-1.6285777e+00
-1.8563378e+00
-1.6889890e+00
-1.1847746e+00
-4.4642159e-01
4.1595516e-01
1.2331695e+00
1.7849369e+00
1.8770004e+00
1.4056339e+00
5.2077511e-01
-3.7852049e-01
-8.9842465e-01
-8.1422472e-01
-8.9766159e-02
1.1104132e+00
2.2674550e+00
2.6100903e+00
1.8098698e+00
3.9682287e-01
-7.9494811e-01
-1.3986415e+00
-1.5609307e+00
-1.5609734e+00
-1.5897571e+00
-1.6930649e+00
-1.8008507e+00
-1.8244435e+00
-1.7164969e+00
-1.4548183e+00
-1.0075741e+00
-3.1704087e-01
6.0992381e-01
1.5979360e+00
2.3261132e+00
2.5322385e+00
2.2389085e+00
1.7068024e+00
1.2140061e+00
8.9994146e-01
6.8960830e-01
3.4562438e-01
-2.5122120e-01
-8.8809760e-01
-1.1985408e+00
-1.0024779e+00
-4.0864439e-01
2.9274596e-01
7.2673529e-01
5.6764462e-01
-1.9571377e-01
-1.1665487e+00
-1.8448518e+00
-1.9613368e+00
-1.5340549e+00
-7.3802792e-01
2.2040646e-01
1.1980268e+00
2.1067908e+00
2.7720786e+00
2.9249288e+00
2.4179229e+00
1.4348677e+00
3.9909553e-01
-4.1357888e-01
-1.1171798e+00
-1.8343341e+00
-2.3220846e+00
-2.3390765e+00
-1.9554786e+00
-1.4255149e+00
-1.0145166e+00
-8.6170228e-01
-9.1460658e-01
-9.8950332e-01
-9.3463286e-01
-6.8957572e-01
-2.2737403e-01
4.5643464e-01
1.3183874e+00
2.2153053e+00
2.8726927e+00
2.9459600e+00
2.2351377e+00
9.7573674e-01
-2.1107789e-01
-7.6558523e-01
-5.4457005e-01
8.2330755e-02
4.1738881e-01
4.1827225e-03
-8.9872596e-01
-1.5921530e+00
-1.6149145e+00
-9.5256409e-01
1.5788374e-01
1.3027910e+00
1.8776338e+00
1.4161482e+00
1.3666364e-01
-1.1797522e+00
-1.9245008e+00
-1.9959233e+00
-1.5925220e+00
-9.7590334e-01
-3.7041131e-01
9.0820489e-02
4.1750487e-01
6.8041391e-01
8.6216823e-01
8.7667472e-01
7.2288640e-01
5.6256226e-01
6.2314411e-01
9.9450801e-01
1.4650525e+00
1.5759407e+00
9.8468801e-01
-1.5285634e-01
-1.2827263e+00
-1.9382950e+00
-2.0228235e+00
-1.7274117e+00
-1.2938382e+00
-8.3126604e-01
-3.1036189e-01
3.3101218e-01
1.0447856e+00
1.5750749e+00
1.5666735e+00
9.2313521e-01
5.1249062e-02
-4.6007167e-01
-3.5060885e-01
1.7470512e-01
6.3361435e-01
6.2876388e-01
1.5037358e-01
-4.5744024e-01
-8.2394581e-01
-8.2860639e-01
-6.2718080e-01
-4.7292679e-01
-4.6209152e-01
-4.4703145e-01
-2.1570323e-01
3.0115317e-01
9.9591544e-01
1.5881622e+00
1.6996689e+00
1.1664146e+00
2.9292558e-01
-3.7644041e-01
-5.2182068e-01
-2.1902415e-01
2.0483475e-01
3.6607102e-01
-2.4723485e-02
-9.1692776e-01
-1.8432286e+00
-2.3038589e+00
-2.1033093e+00
-1.3268839e+00
-1.9240903e-01
9.9444753e-01
1.8456662e+00
2.0562969e+00
1.6448324e+00
9.4708581e-01
3.1275617e-01
-8.6258297e-02
-2.5720551e-01
-3.1640343e-01
-3.7937306e-01
-4.8817956e-01
-6.1980547e-01
-7.4890362e-01
-8.8461701e-01
-1.0060826e+00
-9.8040865e-01
-6.6433838e-01
-6.0413997e-02
6.6883335e-01
1.3125060e+00
1.7083366e+00
1.7646886e+00
1.4998066e+00
1.0186521e+00
4.0992938e-01
-2.6510072e-01
-8.7070988e-01
-1.2079458e+00
-1.2449323e+00
-1.0245145e+00
-4.6818031e-01
3.3321245e-01
9.8774356e-01
1.0594767e+00
4.3455240e-01
-5.4767326e-01
-1.4210716e+00
-1.9070439e+00
-1.9571225e+00
-1.6473211e+00
-1.0536905e+00
-2.0167570e-01
8.7490517e-01
2.0510818e+00
3.0038120e+00
3.2770533e+00
2.6439809e+00
1.3632526e+00
2.4640323e-02
-8.5802962e-01
-1.0526045e+00
-6.0306657e-01
4.9937774e-02
2.4685430e-01
-2.4250416e-01
-1.0176072e+00
-1.5307153e+00
-1.5679973e+00
-1.2651317e+00
-8.8319406e-01
-6.3784139e-01
-6.0997742e-01
-7.1995976e-01
-7.7482148e-01
-5.9261932e-01
-9.3569373e-02
6.5854172e-01
1.4758836e+00
2.1186621e+00
2.4223784e+00
2.3026695e+00
1.6802817e+00
6.3495726e-01
-4.6809934e-01
-1.1882262e+00
-1.3473994e+00
-1.2044081e+00
-1.2210974e+00
-1.5443195e+00
-1.8854759e+00
-1.8458460e+00
-1.2012373e+00
4.1739592e-02
1.7131565e+00
3.3947577e+00
4.2717673e+00
3.5767202e+00
1.5301570e+00
-7.1233860e-01
-2.2086550e+00
-2.7649820e+00
-2.6176440e+00
-2.1119756e+00
-1.5184689e+00
-9.8157631e-01
-5.7397132e-01
-2.7290874e-01
1.0260603e-01
8.0175091e-01
1.8878624e+00
2.9507859e+00
3.2252539e+00
2.3113516e+00
6.5380343e-01
-8.6306274e-01
-1.6661203e+00
-1.7334438e+00
-1.3159116e+00
-6.9510505e-01
-1.4121755e-01
1.0872552e-01
-2.4615536e-02
-3.7187911e-01
-6.5383037e-01
-6.9811310e-01
-4.9067707e-01
-1.2529060e-01
2.3743251e-01
4.2898369e-01
3.7799424e-01
1.6837985e-01
1.0476079e-02
1.4669528e-01
6.9787657e-01
1.5051469e+00
2.0978389e+00
1.9775390e+00
1.1122840e+00
-3.2800660e-03
-8.5460904e-01
-1.2644095e+00
-1.3669934e+00
-1.4196729e+00
-1.5819717e+00
-1.8258586e+00
-2.0427094e+00
-2.1433544e+00
-2.0557804e+00
-1.7192463e+00
-1.1107413e+00
-2.5027497e-01
8.5727696e-01
2.2200748e+00
3.7382058e+00
4.9886034e+00
5.2795584e+00
4.1966994e+00
2.0451351e+00
-2.9930336e-01
-2.0190549e+00
-2.8117842e+00
-2.8045768e+00
-2.2988673e+00
-1.5954590e+00
-9.2518781e-01
-4.7229491e-01
-3.9517119e-01
-5.3155637e-01
-4.3438365e-01
-2.0770614e-02
4.0538473e-01
4.9625875e-01
8.1152278e-02
-5.9942008e-01
-1.0866889e+00
-1.0994022e+00
-6.3516124e-01
1.7094994e-01
1.1057895e+00
1.8526021e+00
2.1078936e+00
1.8217198e+00
1.2725929e+00
8.6523999e-01
8.3189870e-01
9.8094843e-01
7.4439988e-01
-2.5328961e-01
-1.6502817e+00
-2.7187282e+00
-3.0727252e+00
-2.7793755e+00
-2.1382731e+00
-1.4499395e+00
-8.6114917e-01
-3.4511077e-01
2.3764407e-01
1.0600600e+00
2.2057448e+00
3.4365987e+00
4.1734640e+00
3.9468836e+00
2.7815117e+00
1.1062137e+00
-5.7212204e-01
-1.8821369e+00
-2.6059110e+00
-2.6612902e+00
-2.1040993e+00
-1.1086242e+00
2.0577596e-03
7.8700595e-01
9.4349699e-01
5.6805653e-01
4.0073709e-02
-3.6966642e-01
-6.2790951e-01
-8.2555972e-01
-1.0485477e+00
-1.2793900e+00
-1.4149357e+00
-1.3793645e+00
-1.1873147e+00
-8.8361647e-01
-4.6102600e-01
1.4702085e-01
9.8394510e-01
1.9827511e+00
2.8747447e+00
3.2447257e+00
2.7867279e+00
1.5373241e+00
-3.3619697e-02
-1.2930745e+00
-1.8575535e+00
-1.6764959e+00
-9.5081628e-01
-5.5189356e-02
6.0884155e-01
8.1433282e-01
6.3596664e-01
2.9240113e-01
-9.7262810e-02
-5.3866554e-01
-1.0341468e+00
-1.4788009e+00
-1.6880258e+00
-1.5255651e+00
-9.7212997e-01
-9.8414735e-02
9.0680704e-01
1.6690517e+00
1.8560441e+00
1.5968745e+00
1.3078827e+00
1.1147452e+00
7.6997323e-01
1.0656180e-01
-6.6477210e-01
-1.1912418e+00
-1.2666396e+00
-8.8729289e-01
-3.0774506e-01
1.1288201e-01
2.1828510e-01
7.9111975e-02
-1.1692802e-01
-1.9589327e-01
-9.5116945e-02
1.0464105e-01
1.9380144e-01
-6.6098041e-02
-7.2883935e-01
-1.5158520e+00
-2.0146334e+00
-1.9844605e+00
-1.4224465e+00
-4.3069961e-01
8.7095668e-01
2.3119805e+00
3.5173433e+00
3.9460481e+00
3.2592475e+00
1.5949295e+00
-4.2137775e-01
-2.0286808e+00
-2.7918341e+00
-2.7039264e+00
-2.0050724e+00
-9.7796213e-01
1.0947619e-01
9.4668388e-01
1.2344608e+00
9.1083503e-01
2.2353170e-01
-4.6184110e-01
-8.4887218e-01
-7.7119704e-01
-1.8068822e-01
7.7384112e-01
1.6612528e+00
1.9766633e+00
1.5058315e+00
4.6417338e-01
-6.7604825e-01
-1.4850467e+00
-1.7607930e+00
-1.5024711e+00
-7.8893237e-01
2.3646667e-01
1.2136828e+00
1.5990600e+00
1.1161006e+00
9.6121808e-02
-8.0845696e-01
-1.1911549e+00
-1.0633739e+00
-6.4779355e-01
-1.8465460e-01
1.5597281e-01
3.0167679e-01
2.7345267e-01
1.3030305e-01
-1.1003906e-01
-4.2360733e-01
-6.7085135e-01
-6.6860571e-01
-3.6325247e-01
9.8666651e-02
4.5088164e-01
4.3790975e-01
-6.8200975e-02
-8.1918440e-01
-1.2222225e+00
-8.2500845e-01
4.2134339e-01
2.0917901e+00
3.3891286e+00
3.6385129e+00
2.7365247e+00
1.1974831e+00
-2.5754216e-01
-1.1972052e+00
-1.6147242e+00
-1.7362966e+00
-1.7445758e+00
-1.6847457e+00
-1.5752041e+00
-1.4710861e+00
-1.4072228e+00
-1.3595444e+00
-1.2639073e+00
-9.7952415e-01
-2.8477392e-01
9.2257472e-01
2.4137340e+00
3.6094189e+00
3.9417245e+00
3.3217159e+00
2.0964220e+00
7.0922070e-01
-5.0472952e-01
-1.3828483e+00
-1.9028398e+00
-2.1098225e+00
-2.0646847e+00
-1.8021303e+00
-1.3255386e+00
-6.4321582e-01
1.6932903e-01
9.2289908e-01
1.3298639e+00
1.1797636e+00
5.9321636e-01
-3.9629028e-02
-4.1780886e-01
-5.0820002e-01
-4.1636225e-01
-2.4955333e-01
-1.0746850e-01
-3.8114687e-02
4.4378515e-02
2.3426716e-01
4.4676330e-01
4.7212265e-01
2.0493908e-01
-2.9293471e-01
-8.9311203e-01
-1.4260410e+00
-1.7357082e+00
-1.7229512e+00
-1.3378972e+00
-5.7082050e-01
5.5923630e-01
1.9544834e+00
3.2263079e+00
3.6406139e+00
2.7684597e+00
1.1037586e+00
-4.2284657e-01
-1.2893344e+00
-1.4988399e+00
-1.3013730e+00
-9.6778964e-01
-6.6465675e-01
-4.6055579e-01
-3.5183744e-01
-2.8351674e-01
-1.3973525e-01
2.1488664e-01
7.5835537e-01
1.2056025e+00
1.1420664e+00
4.8629276e-01
-3.0659572e-01
-7.5163885e-01
-7.5589355e-01
-5.3463846e-01
-3.4618196e-01
-3.1298484e-01
-3.9548357e-01
-4.9377300e-01
-5.5860004e-01
-5.8369893e-01
-5.7437220e-01
-5.4769642e-01
-5.1644421e-01
-4.5881050e-01
-3.0239685e-01
4.9286878e-02
5.9100666e-01
1.0933880e+00
1.2428225e+00
9.5372719e-01
4.8127172e-01
2.3147842e-01
4.4800633e-01
1.0156568e+00
1.4954566e+00
1.4414847e+00
8.0563053e-01
-6.0165235e-02
-7.7881621e-01
-1.2292418e+00
-1.4949318e+00
-1.6461245e+00
-1.6514188e+00
-1.4462317e+00
-1.0067775e+00
-3.6112302e-01
3.8839264e-01
1.0619079e+00
1.5105166e+00
1.7244997e+00
1.7441484e+00
1.5065926e+00
9.1562235e-01
6.0708409e-02
-7.6680687e-01
-1.2960796e+00
-1.3816406e+00
-9.9703141e-01
-3.9215456e-01
-7.5419316e-02
-3.4895275e-01
-9.7495607e-01
-1.3960655e+00
-1.2264642e+00
-4.3446232e-01
7.9994331e-01
2.1787058e+00
3.1533092e+00
3.0104803e+00
1.6386320e+00
-1.5232520e-01
-1.4819167e+00
-2.0783363e+00
-2.0981366e+00
-1.8055403e+00
-1.4022785e+00
-9.9236820e-01
-6.2514524e-01
-2.7524223e-01
1.9771617e-01
9.8773086e-01
2.1002790e+00
3.0708733e+00
3.1473987e+00
2.0695389e+00
4.4081203e-01
-9.0083843e-01
-1.6148478e+00
-1.8531182e+00
-1.8722178e+00
-1.8176070e+00
-1.7084442e+00
-1.5134289e+00
-1.2133087e+00
-7.9993645e-01
-2.5545546e-01
4.6616963e-01
1.3896314e+00
2.2969230e+00
2.6746001e+00
2.1673968e+00
1.0536094e+00
3.3965729e-02
-3.9628506e-01
-1.9138927e-01
3.5637459e-01
7.2213987e-01
4.5286976e-01
-3.6754456e-01
-1.1981496e+00
-1.5917909e+00
-1.4524305e+00
-9.4651315e-01
-3.6479530e-01
-1.6860969e-02
-9.8274201e-02
-5.3355870e-01
-1.0431581e+00
-1.3603410e+00
-1.3424260e+00
-9.5706085e-01
-1.9870187e-01
8.7344734e-01
2.0368618e+00
2.9036033e+00
3.1084123e+00
2.5256053e+00
1.3052401e+00
-1.0113855e-01
-1.1383263e+00
-1.5157372e+00
-1.2881984e+00
-7.5266197e-01
-2.6160523e-01
6.0881126e-03
1.1713160e-01
2.5054520e-01
4.5291764e-01
5.5357108e-01
3.4291069e-01
-1.6975245e-01
-7.3364577e-01
-1.0925512e+00
-1.1520557e+00
-9.4870560e-01
-5.5795939e-01
-1.2464864e-01
1.9641056e-01
3.3894760e-01
3.0044403e-01
1.8907030e-01
1.4871578e-01
1.8514616e-01
1.8972044e-01
1.0549123e-01
1.2008418e-02
3.2672247e-02
2.0332200e-01
4.0806532e-01
4.5782951e-01
2.5136600e-01
-1.5790412e-01
-5.6859573e-01
-7.3651834e-01
-5.4749420e-01
-6.7858083e-02
5.0862770e-01
9.3048550e-01
1.0154970e+00
7.8919070e-01
4.4266170e-01
1.0724162e-01
-2.3823740e-01
-6.0942215e-01
-8.9485711e-01
-9.2360286e-01
-5.8133548e-01
8.9497386e-02
7.9211431e-01
1.1129474e+00
9.1121524e-01
4.6836817e-01
1.2900081e-01
-5.8487197e-02
-2.6291005e-01
-6.1406990e-01
-1.0458633e+00
-1.3776994e+00
-1.5006928e+00
-1.4332167e+00
-1.2497256e+00
-1.0106735e+00
-7.5994399e-01
-4.8478880e-01
-7.3359897e-02
5.8634507e-01
1.4397452e+00
2.2628385e+00
2.7596943e+00
2.6571455e+00
1.8679608e+00
6.2285149e-01
-5.8402799e-01
-1.2345661e+00
-1.0347513e+00
-7.4339342e-02
1.0189787e+00
1.2912094e+00
3.8209114e-01
-9.8740825e-01
-1.8402020e+00
-1.8071188e+00
-1.0846557e+00
-1.1781282e-01
5.8405619e-01
6.7558285e-01
2.0167760e-01
-4.7991745e-01
-9.9002937e-01
-1.1375469e+00
-9.1378898e-01
-3.5497641e-01
4.3620831e-01
1.1892101e+00
1.5608699e+00
1.4045780e+00
8.3400639e-01
4.9395104e-02
-6.8241886e-01
-1.0572263e+00
-9.2862254e-01
-3.3436396e-01
5.5622045e-01
1.3690885e+00
1.5955793e+00
1.0754298e+00
2.2845766e-01
-5.0123912e-01
-9.8565291e-01
-1.2215221e+00
-1.2018642e+00
-9.5190894e-01
-5.6961336e-01
-2.0881595e-01
-3.5786239e-02
-7.3195676e-02
-1.2285659e-01
4.6301208e-02
4.6937027e-01
9.6615590e-01
1.2494168e+00
1.1127862e+00
6.0533540e-01
-1.7891091e-02
-4.7861603e-01
-5.9765666e-01
-3.3359690e-01
1.4598814e-01
4.2112721e-01
2.0384003e-01
-2.8872788e-01
-6.9700146e-01
-8.8489552e-01
-8.6381307e-01
-6.8750309e-01
-4.6613750e-01
-3.3282193e-01
-3.2736866e-01
-3.6949415e-01
-3.3421984e-01
-1.3784779e-01
2.3251496e-01
7.5761159e-01
1.4296570e+00
2.2006940e+00
2.4917902e+00
1.5540591e+00
-1.5637353e-01
-1.4664252e+00
-1.7951266e+00
-1.2255799e+00
-3.2390364e-01
3.4156336e-02
-5.8318660e-01
-1.6406516e+00
-2.3212798e+00
-2.2547083e+00
-1.4537192e+00
-7.4259433e-02
1.6767534e+00
3.5169852e+00
4.8404387e+00
4.8154328e+00
3.2741522e+00
1.0951277e+00
-6.9269636e-01
-1.7090668e+00
-2.0913676e+00
-2.1221455e+00
-2.0090969e+00
-1.8301459e+00
-1.6022924e+00
-1.3677122e+00
-1.1833478e+00
-9.9258081e-01
-6.3738342e-01
-3.6579080e-02
7.3467001e-01
1.4157327e+00
1.6572563e+00
1.3913435e+00
9.4231384e-01
6.7190806e-01
6.4933232e-01
6.6417607e-01
4.5199427e-01
-5.9886103e-02
-6.6562930e-01
-1.0662674e+00
-1.1272548e+00
-9.2754881e-01
-6.1622348e-01
-3.1639470e-01
-1.2976399e-01
-1.4804189e-01
-3.9516962e-01
-7.5030629e-01
-9.9227951e-01
-9.2283892e-01
-4.2612118e-01
4.7834920e-01
1.5471112e+00
2.2572406e+00
2.1491070e+00
1.3519611e+00
4.6873021e-01
1.5688254e-02
8.4622240e-02
4.1981353e-01
6.4458344e-01
4.5646024e-01
-1.5287250e-01
-8.6617889e-01
-1.3683162e+00
-1.5708880e+00
-1.5070659e+00
-1.2519882e+00
-9.1970159e-01
-6.2553197e-01
-4.1641084e-01
-2.9429621e-01
-3.0615116e-01
-4.3391079e-01
-4.7420431e-01
-1.8960853e-01
5.8283280e-01
1.8862367e+00
3.3895164e+00
4.1543349e+00
3.3490946e+00
1.3860860e+00
-5.3954795e-01
-1.7049127e+00
-2.0740936e+00
-1.9248425e+00
-1.6105180e+00
-1.3970843e+00
-1.3461357e+00
-1.3442296e+00
-1.2697335e+00
-1.0967782e+00
-8.4250778e-01
-4.7790390e-01
1.0048876e-01
9.5570143e-01
1.9149100e+00
2.4551785e+00
2.1032574e+00
1.1115124e+00
2.9950257e-01
2.4114829e-01
7.9679642e-01
1.1565330e+00
5.7033921e-01
-7.2773442e-01
-1.8314554e+00
-2.1662466e+00
-1.7139872e+00
-7.2782751e-01
4.3692003e-01
1.3581050e+00
1.6142291e+00
1.1119542e+00
2.5807626e-01
-4.2115157e-01
-6.8278107e-01
-5.9849322e-01
-3.6387257e-01
-1.2814608e-01
6.2322785e-02
2.0547394e-01
2.4846838e-01
1.0301816e-01
-1.2357409e-01
-1.4523972e-01
8.7464713e-02
2.6223147e-01
1.7994338e-02
-6.2270709e-01
-1.2222664e+00
-1.3894036e+00
-1.0544565e+00
-3.8391043e-01
3.3516348e-01
8.5011975e-01
1.0001985e+00
7.1338989e-01
1.4687392e-01
-3.5769198e-01
-5.5785912e-01
-4.0742579e-01
7.1161017e-02
8.0677339e-01
1.5992992e+00
2.0199504e+00
1.6231884e+00
4.4761365e-01
-9.5835375e-01
-1.9800019e+00
-2.3038128e+00
-1.9806780e+00
-1.2632769e+00
-5.1640694e-01
-5.2728780e-02
1.5547764e-01
4.0005802e-01
9.3171066e-01
1.7407716e+00
2.4776030e+00
2.5616966e+00
1.6264635e+00
1.8633877e-02
-1.4729800e+00
-2.3474623e+00
-2.5674743e+00
-2.2893120e+00
-1.6760128e+00
-8.3414515e-01
1.8437371e-01
1.2984660e+00
2.1911334e+00
2.3409747e+00
1.5576098e+00
3.3041924e-01
-6.0140447e-01
-8.3561142e-01
-3.8377164e-01
4.5132899e-01
1.0998396e+00
1.0752741e+00
5.0194707e-01
-9.2498513e-02
-4.0789526e-01
-5.5028384e-01
-8.1234724e-01
-1.3520218e+00
-2.0036106e+00
-2.4355187e+00
-2.4293899e+00
-1.9572759e+00
-1.0845960e+00
1.1609353e-01
1.5301731e+00
2.9346215e+00
3.9183569e+00
3.9426856e+00
2.7470312e+00
7.2548859e-01
-1.2257228e+00
-2.3309046e+00
-2.3554635e+00
-1.5167411e+00
-3.7239662e-01
3.0217165e-01
6.4470627e-02
-7.0910834e-01
-1.1941330e+00
-8.6942573e-01
2.5760533e-01
1.8111183e+00
3.1185774e+00
3.4415540e+00
2.5439454e+00
9.3740236e-01
-6.0258082e-01
-1.6720130e+00
-2.2835671e+00
-2.5168082e+00
-2.3887044e+00
-1.9622765e+00
-1.4193902e+00
-9.6769684e-01
-6.6935774e-01
-3.9277939e-01
1.1619344e-01
1.1010246e+00
2.4982961e+00
3.6020117e+00
3.4003216e+00
1.8019567e+00
-6.2839190e-02
-1.1402541e+00
-1.2292686e+00
-6.4333866e-01
1.2525046e-01
5.3393875e-01
2.7500531e-01
-4.5128668e-01
-1.1588748e+00
-1.5467304e+00
-1.6249939e+00
-1.5208127e+00
-1.3134686e+00
-1.0078983e+00
-5.7377200e-01
-1.6704749e-02
5.4489789e-01
9.1962387e-01
1.0224180e+00
9.7912417e-01
9.7962108e-01
1.2136419e+00
1.7742035e+00
2.2816038e+00
2.0391824e+00
8.5941333e-01
-6.4796371e-01
-1.7877512e+00
-2.3205212e+00
-2.3467823e+00
-2.0922161e+00
-1.7431651e+00
-1.3588598e+00
-9.0967246e-01
-3.6195556e-01
2.7369451e-01
8.9368921e-01
1.3362843e+00
1.4956320e+00
1.3712964e+00
1.0736415e+00
8.0487201e-01
7.6042469e-01
9.4814664e-01
1.1056913e+00
8.7638768e-01
1.7684117e-01
-6.8402693e-01
-1.3357988e+00
-1.6333132e+00
-1.6219040e+00
-1.3827391e+00
-9.7348599e-01
-4.4969353e-01
1.5426129e-01
8.2250767e-01
1.4260711e+00
1.6716364e+00
1.3543380e+00
6.3079700e-01
-1.2798526e-01
-7.3057099e-01
-1.1863029e+00
-1.4527744e+00
-1.4276384e+00
-1.0947573e+00
-5.1394110e-01
2.4000370e-01
9.5910125e-01
1.2532570e+00
8.8560015e-01
1.4224232e-01
-3.7659652e-01
-3.0062911e-01
3.2804118e-01
1.2035016e+00
1.8768053e+00
1.9039254e+00
1.1359878e+00
-1.3130394e-01
-1.3858622e+00
-2.2883652e+00
-2.7670758e+00
-2.8234451e+00
-2.4315449e+00
-1.5785991e+00
-2.8841308e-01
1.3490478e+00
3.0062396e+00
4.0467356e+00
3.8976733e+00
2.6328756e+00
9.8125063e-01
-3.8094535e-01
-1.2599793e+00
-1.7345726e+00
-1.8916942e+00
-1.7671870e+00
-1.3327190e+00
-5.3280592e-01
4.7973032e-01
1.2313990e+00
1.2316193e+00
4.1701584e-01
-7.3247961e-01
-1.6483374e+00
-2.0978022e+00
-2.1230622e+00
-1.8442985e+00
-1.3748192e+00
-7.4533383e-01
1.7241144e-01
1.5205717e+00
3.1422482e+00
4.3320637e+00
4.2242826e+00
2.7285500e+00
7.1488329e-01
-8.0381265e-01
-1.3933753e+00
-1.2673230e+00
-9.6120747e-01
-9.0039931e-01
-1.1232074e+00
-1.3422347e+00
-1.2726185e+00
-8.7233003e-01
-3.1641774e-01
1.3710373e-01
2.4287868e-01
-8.1984460e-02
-6.2658485e-01
-1.0376107e+00
-1.0921440e+00
-7.9636819e-01
-2.7494500e-01
3.3524830e-01
9.0001728e-01
1.3042226e+00
1.5206496e+00
1.6414679e+00
1.7800669e+00
1.9630692e+00
2.0936734e+00
2.0116894e+00
1.6216790e+00
1.0153553e+00
4.3865254e-01
2.0830328e-02
