9.8924397e-02
1.5048816e-01
1.9810633e-01
2.4153049e-01
2.8112414e-01
3.1582967e-01
3.4233263e-01
3.5533956e-01
3.5031025e-01
3.2577515e-01
2.8466018e-01
2.3374316e-01
1.8025040e-01
1.3081600e-01
9.0926296e-02
6.2873177e-02
4.5943622e-02
3.7621186e-02
3.4318419e-02
3.3388586e-02
3.4247052e-02
3.6687373e-02
3.9681176e-02
4.1719127e-02
4.1011514e-02
3.6043404e-02
2.6936946e-02
1.4856724e-02
8.8455039e-04
-1.3060126e-02
-2.4736170e-02
-3.2721289e-02
-3.6334538e-02
-3.6549304e-02
-3.5180436e-02
-3.2961498e-02
-3.0002573e-02
-2.6112461e-02
-2.1563765e-02
-1.7578720e-02
-1.5127137e-02
-1.4479192e-02
-1.4945972e-02
-1.6094912e-02
-1.9043005e-02
-2.5418458e-02
-3.5718538e-02
-4.8062417e-02
-5.8479351e-02
-6.2240752e-02
-5.6327296e-02
-4.0961509e-02
-2.0451829e-02
-3.6252542e-03
2.1394742e-03
-3.7723188e-03
-1.5405305e-02
-2.3169325e-02
-2.0358491e-02
-4.7355443e-03
2.3214459e-02
5.9952482e-02
9.9400560e-02
1.3405531e-01
1.5660669e-01
1.6112948e-01
1.4486169e-01
1.0843270e-01
5.6177057e-02
-2.4304111e-03
-5.6246986e-02
-9.6598340e-02
-1.1885776e-01
-1.2314446e-01
-1.1210114e-01
-8.7471624e-02
-5.0340823e-02
-3.1412397e-03
4.8293832e-02
9.2431587e-02
1.1608873e-01
1.1274377e-01
8.5863169e-02
4.5371488e-02
2.0127625e-03
-3.6137932e-02
-6.4630249e-02
-8.1000251e-02
-8.4362328e-02
-7.6204922e-02
-5.9926840e-02
-3.9470006e-02
-1.8374280e-02
-5.2384020e-04
1.0743101e-02
1.3600544e-02
8.4211190e-03
-1.4786790e-03
-1.1830309e-02
-1.9331333e-02
-2.2321054e-02
-2.0577212e-02
-1.4774730e-02
-5.6359803e-03
5.8629969e-03
1.7145634e-02
2.4861633e-02
2.5896431e-02
1.8412081e-02
3.2503586e-03
-1.6374869e-02
-3.6681381e-02
-5.4463756e-02
-6.6853572e-02
-7.1730141e-02
-6.7697264e-02
-5.3818663e-02
-2.9709735e-02
4.0911026e-03
4.6102679e-02
9.2668448e-02
1.3555381e-01
1.6323743e-01
1.6461239e-01
1.3588078e-01
8.5000426e-02
2.7525937e-02
-2.1094781e-02
-5.2568151e-02
-6.5995885e-02
-6.4894558e-02
-5.6000149e-02
-4.6639069e-02
-4.1375100e-02
-3.9806330e-02
-3.8078366e-02
-3.3211159e-02
-2.5348409e-02
-1.6735495e-02
-1.0211735e-02
-6.0686163e-03
-1.0045846e-03
8.0158528e-03
2.3193308e-02
4.4733257e-02
6.8167141e-02
8.6492459e-02
9.3431027e-02
8.7236408e-02
7.2022245e-02
5.3474586e-02
3.4743477e-02
1.5454824e-02
-5.9567646e-03
-2.8504325e-02
-4.8021884e-02
-5.9744505e-02
-6.1273019e-02
-5.3927044e-02
-4.1355623e-02
-2.7329864e-02
-1.4706707e-02
-4.9112463e-03
1.3518219e-03
2.9784255e-03
-1.3822966e-03
-1.2700869e-02
-3.1148588e-02
-5.4187363e-02
-7.5268471e-02
-8.6992037e-02
-8.4661735e-02
-6.8215007e-02
-4.2430424e-02
-1.6201637e-02
-8.7555422e-04
-3.0153213e-03
-1.9594301e-02
-4.2453364e-02
-6.5542572e-02
-8.1985408e-02
-8.2438526e-02
-6.5234606e-02
-3.3626400e-02
9.9447011e-03
6.0941194e-02
1.1286769e-01
1.5763115e-01
1.8748979e-01
1.9774889e-01
1.8699918e-01
1.5628642e-01
1.0988730e-01
5.6492647e-02
6.1500225e-03
-3.3311955e-02
-5.8721941e-02
-7.2413469e-02
-7.8859568e-02
-8.1549390e-02
-8.0846014e-02
-7.3592065e-02
-5.7206915e-02
-3.1745801e-02
-7.1608765e-04
2.6563360e-02
3.8354739e-02
2.7130284e-02
-5.5409750e-03
-4.9187170e-02
-9.0145322e-02
-1.1750545e-01
-1.2688456e-01
-1.1908551e-01
-9.6845143e-02
-6.3240316e-02
-2.0309426e-02
3.0972228e-02
8.9359770e-02
1.5247676e-01
2.1411616e-01
2.6036951e-01
2.7297423e-01
2.4022072e-01
1.6776513e-01
7.7685555e-02
-5.8703881e-03
-6.7658416e-02
-1.0346031e-01
-1.1803238e-01
-1.1975919e-01
-1.1658293e-01
-1.1258677e-01
-1.0575266e-01
-9.2609302e-02
-7.2167249e-02
-4.6191148e-02
-1.9319107e-02
3.7765468e-03
2.0338221e-02
3.0008081e-02
3.4322127e-02
3.4665023e-02
3.2511465e-02
2.9164511e-02
2.4734187e-02
1.8809238e-02
1.0233782e-02
-3.0365106e-03
-2.1864148e-02
-4.4416521e-02
-6.7195067e-02
-8.6419845e-02
-9.8588605e-02
-1.0139869e-01
-9.3755773e-02
-7.5571243e-02
-4.8459164e-02
-1.4924695e-02
2.3008215e-02
6.3506018e-02
1.0411577e-01
1.3996652e-01
1.6231188e-01
1.6194278e-01
1.3471202e-01
8.4953221e-02
2.3696049e-02
-3.6587839e-02
-8.6032512e-02
-1.1947413e-01
-1.3546123e-01
-1.3460495e-01
-1.1822903e-01
-8.8305910e-02
-4.7387484e-02
8.5015415e-04
4.8115004e-02
8.2843414e-02
9.6010131e-02
8.7264839e-02
6.5656573e-02
4.2567183e-02
2.6578796e-02
2.1226367e-02
2.5963821e-02
3.8555930e-02
5.4862762e-02
6.8841452e-02
7.3006639e-02
6.1641764e-02
3.4592611e-02
-2.0236697e-03
-3.8113962e-02
-6.5327394e-02
-8.1558166e-02
-9.0413686e-02
-9.7592878e-02
-1.0629405e-01
-1.1368535e-01
-1.1322250e-01
-9.8456233e-02
-6.5500569e-02
-1.6889102e-02
3.6501879e-02
7.7770514e-02
9.4583990e-02
8.8761312e-02
7.2730572e-02
6.0114651e-02
5.8892715e-02
7.0882856e-02
9.2571271e-02
1.1469320e-01
1.2490213e-01
1.1263710e-01
7.5103862e-02
1.9772682e-02
-3.9520341e-02
-9.0697133e-02
-1.2814586e-01
-1.5071815e-01
-1.5953634e-01
-1.5520956e-01
-1.3683245e-01
-1.0379357e-01
-5.6685032e-02
4.8930049e-04
5.6866825e-02
9.5771082e-02
1.0477626e-01
8.3472282e-02
4.3054108e-02
9.4404347e-04
-2.9216009e-02
-4.1387280e-02
-3.5043433e-02
-1.3792679e-02
1.6879691e-02
5.2502690e-02
8.9495790e-02
1.2251436e-01
1.4485260e-01
1.5024929e-01
1.3577136e-01
1.0419923e-01
6.2018881e-02
1.5783067e-02
-2.9419328e-02
-6.8938645e-02
-9.7863751e-02
-1.1262220e-01
-1.1268635e-01
-9.9678152e-02
-7.7114750e-02
-5.0465066e-02
-2.6485197e-02
-1.2561064e-02
-1.3915389e-02
-3.2771879e-02
-6.1943408e-02
-8.5972462e-02
-9.7357533e-02
-9.6432678e-02
-8.4527012e-02
-6.3645172e-02
-3.6712542e-02
-8.5498978e-03
1.6561781e-02
3.6555752e-02
5.1754312e-02
6.4542552e-02
7.6940178e-02
8.9114964e-02
9.8669153e-02
1.0020132e-01
8.8332777e-02
6.2291363e-02
2.7731036e-02
-6.2547797e-03
-3.2698703e-02
-4.8946647e-02
-5.5403891e-02
-5.3707144e-02
-4.5417188e-02
-3.2208656e-02
-1.6361150e-02
-1.0950516e-03
1.0200547e-02
1.5601590e-02
1.5825412e-02
1.3903989e-02
1.2863977e-02
1.4214725e-02
1.7764435e-02
2.2227961e-02
2.6744790e-02
3.1720232e-02
3.8078479e-02
4.6856277e-02
5.7458436e-02
6.4938882e-02
6.1780268e-02
4.1599301e-02
3.9269979e-03
-4.3665455e-02
-9.0952488e-02
-1.3041037e-01
-1.5868885e-01
-1.7508980e-01
-1.7895038e-01
-1.6941760e-01
-1.4653663e-01
-1.1087871e-01
-6.3294108e-02
-5.2448603e-03
6.1858279e-02
1.3640350e-01
2.1413538e-01
2.8519969e-01
3.3349915e-01
3.4269994e-01
3.0654070e-01
2.3400667e-01
1.4548350e-01
6.1525271e-02
-5.6003808e-03
-5.1535851e-02
-7.7586214e-02
-8.9130413e-02
-9.4041166e-02
-1.0157862e-01
-1.1900623e-01
-1.4656824e-01
-1.7715660e-01
-2.0244838e-01
-2.1810489e-01
-2.2347787e-01
-2.1924997e-01
-2.0618875e-01
-1.8528222e-01
-1.5700665e-01
-1.2084048e-01
-7.5896250e-02
-2.1026142e-02
4.4460960e-02
1.1772965e-01
1.8959217e-01
2.4717963e-01
2.8008098e-01
2.8531388e-01
2.6791280e-01
2.3635832e-01
1.9771695e-01
1.5483428e-01
1.0734312e-01
5.5254602e-02
5.2923548e-04
-5.3646177e-02
-1.0413024e-01
-1.4775754e-01
-1.8183767e-01
-2.0474742e-01
-2.1576056e-01
-2.1518341e-01
-2.0404047e-01
-1.8356294e-01
-1.5423292e-01
-1.1602876e-01
-6.9055330e-02
-1.4492807e-02
4.3422155e-02
9.6395537e-02
1.3281348e-01
1.4369653e-01
1.2821729e-01
9.3643736e-02
5.2744772e-02
1.7807010e-02
-4.0703690e-03
-1.1900382e-02
-8.9053744e-03
8.3866287e-04
1.4673620e-02
3.2026904e-02
5.2681681e-02
7.4732252e-02
9.4046432e-02
1.0570093e-01
1.0621499e-01
9.5051229e-02
7.4051713e-02
4.5563206e-02
1.2381013e-02
-2.1873190e-02
-5.3290576e-02
-7.8156212e-02
-9.3907686e-02
-9.9904707e-02
-9.6964603e-02
-8.6777724e-02
-7.1831240e-02
-5.5052040e-02
-3.8918399e-02
-2.5191884e-02
-1.4488519e-02
-6.3334987e-03
-1.3299385e-03
-9.7770662e-04
-5.4267488e-03
-1.2205057e-02
-1.6444177e-02
-1.3259510e-02
5.8888020e-04
2.5366748e-02
5.8790789e-02
9.7519074e-02
1.3644722e-01
1.6924937e-01
1.8853012e-01
1.8697850e-01
1.6156905e-01
1.1510122e-01
5.5224605e-02
-7.7491966e-03
-6.4723060e-02
-1.0989299e-01
-1.4090245e-01
-1.5873933e-01
-1.6448306e-01
-1.5710396e-01
-1.3589778e-01
-1.0243283e-01
-6.0580677e-02
-1.6381040e-02
2.2173730e-02
4.7689674e-02
5.5969107e-02
4.6549182e-02
2.1402609e-02
-1.1579628e-02
-3.9942861e-02
-5.8112859e-02
-6.6090155e-02
-6.3894864e-02
-5.1700100e-02
-3.0838469e-02
-5.5048281e-03
1.7875735e-02
3.2713457e-02
3.6586328e-02
3.2251559e-02
2.4384141e-02
1.7209653e-02
1.3503668e-02
1.5735244e-02
2.5845948e-02
4.3526191e-02
6.5658914e-02
8.6227920e-02
9.7764586e-02
9.4599277e-02
7.5976365e-02
4.5186445e-02
6.7489446e-03
-3.3938784e-02
-7.1099753e-02
-1.0026488e-01
-1.1838028e-01
-1.2301020e-01
-1.1326621e-01
-8.9536453e-02
-5.2992918e-02
-7.9846749e-03
3.6931874e-02
7.0647498e-02
8.5050900e-02
8.0731491e-02
6.5187879e-02
4.7078215e-02
3.1636917e-02
1.9626515e-02
9.8793669e-03
5.8847044e-04
-1.0077310e-02
-2.2011996e-02
-3.2399065e-02
-3.7146946e-02
-3.3064589e-02
-1.9280205e-02
1.8311427e-03
2.5712433e-02
4.7467211e-02
6.3229945e-02
7.1229498e-02
7.0029473e-02
5.7748963e-02
3.4021140e-02
2.4787273e-03
-2.9152273e-02
-5.3154475e-02
-6.5102017e-02
-6.4668416e-02
-5.4282767e-02
-3.7661113e-02
-1.9673775e-02
-5.1263241e-03
2.4448738e-03
1.5561337e-03
-5.8472555e-03
-1.4951611e-02
-2.1443775e-02
-2.3497742e-02
-2.1353205e-02
-1.6330182e-02
-1.0351802e-02
-5.3014764e-03
-1.7614156e-03
6.5886505e-04
3.1606334e-03
7.9485673e-03
1.7295252e-02
3.2059711e-02
4.9935941e-02
6.4778409e-02
6.8209326e-02
5.5480215e-02
2.9269085e-02
-2.2692792e-03
-2.9464781e-02
-4.6330416e-02
-5.1354267e-02
-4.6046682e-02
-3.4040194e-02
-1.9002143e-02
-4.7079077e-03
5.3773537e-03
9.3702768e-03
7.0983367e-03
-5.3280427e-04
-1.1843016e-02
-2.4219165e-02
-3.4690773e-02
-3.9736563e-02
-3.6354541e-02
-2.3880922e-02
-4.4199479e-03
1.7524137e-02
3.6463314e-02
4.7214786e-02
4.6956484e-02
3.6764355e-02
2.0044300e-02
1.2863130e-03
-1.5658563e-02
-3.1246262e-02
-4.8316846e-02
-6.6434739e-02
-8.0513498e-02
-8.3454899e-02
-7.0465598e-02
-4.0551225e-02
4.4753574e-03
6.0847519e-02
1.2033883e-01
1.6706510e-01
1.8517729e-01
1.6878159e-01
1.2382656e-01
6.4700606e-02
6.5083143e-03
-4.1008267e-02
-7.4055466e-02
-9.2154989e-02
-9.6331654e-02
-8.8618665e-02
-7.2350592e-02
-5.2513363e-02
-3.4091444e-02
-2.0322454e-02
-1.1244935e-02
-4.1446054e-03
4.1755735e-03
1.5650731e-02
2.8847923e-02
3.8626013e-02
3.9405870e-02
2.8732607e-02
9.3780583e-03
-1.0923840e-02
-2.4559220e-02
-2.7637356e-02
-1.9931805e-02
-4.7360022e-03
1.2666205e-02
2.5810982e-02
3.0030929e-02
2.5748807e-02
1.7270431e-02
1.1084819e-02
1.2931535e-02
2.5302556e-02
4.6791491e-02
7.1703053e-02
9.0592623e-02
9.2719573e-02
7.3017201e-02
3.5918960e-02
-8.5468848e-03
-4.9464542e-02
-7.8885396e-02
-9.3934096e-02
-9.5988351e-02
-8.8451150e-02
-7.5568346e-02
-6.1731453e-02
-5.0444314e-02
-4.4385279e-02
-4.4869784e-02
-5.3023397e-02
-6.4676903e-02
-6.8949245e-02
-6.1353007e-02
-4.4024827e-02
-1.9312519e-02
9.1697512e-03
3.7060671e-02
6.0199250e-02
7.5586199e-02
8.2568837e-02
8.2053369e-02
7.4838197e-02
6.0945945e-02
4.0401634e-02
1.4688773e-02
-1.4060833e-02
-4.4000652e-02
-7.2662982e-02
-9.6305893e-02
-1.1053203e-01
-1.1181608e-01
-9.8715921e-02
-7.2496133e-02
-3.5911616e-02
7.4273697e-03
5.1770893e-02
9.0545305e-02
1.1914538e-01
1.3633659e-01
1.4428801e-01
1.4534098e-01
1.3885500e-01
1.2284907e-01
9.7774963e-02
6.8573506e-02
4.2425029e-02
2.4155457e-02
1.2861281e-02
1.6136263e-03
-1.8313923e-02
-5.0334487e-02
-8.9066858e-02
-1.2486236e-01
-1.4999651e-01
-1.6223163e-01
-1.6473643e-01
-1.6227007e-01
-1.5921629e-01
-1.5534859e-01
-1.4439174e-01
-1.2145261e-01
-8.4339854e-02
-3.1887477e-02
3.5625044e-02
1.1634608e-01
2.0315370e-01
2.8076453e-01
3.2745391e-01
3.2477123e-01
2.6951778e-01
1.7618840e-01
6.9193956e-02
-2.9782478e-02
-1.0921671e-01
-1.6658001e-01
-2.0388385e-01
-2.2300119e-01
-2.2460537e-01
-2.0908200e-01
-1.7714071e-01
-1.3137254e-01
-7.4821384e-02
-9.4169075e-03
6.1978851e-02
1.3407020e-01
1.9839381e-01
2.4285331e-01
2.5450038e-01
2.2648429e-01
1.6249708e-01
7.6472368e-02
-1.1725437e-02
-8.5445089e-02
-1.3682870e-01
-1.6551554e-01
-1.7478260e-01
-1.6834050e-01
-1.4784400e-01
-1.1338926e-01
-6.6974137e-02
-1.5484989e-02
2.7969366e-02
5.1636860e-02
5.4434983e-02
4.5353834e-02
3.7421674e-02
4.0287656e-02
5.6954622e-02
8.4616404e-02
1.1548231e-01
1.3809052e-01
1.4088922e-01
1.1933359e-01
7.9321601e-02
3.3203798e-02
-6.6581075e-03
-3.2456654e-02
-4.2770348e-02
-4.3500471e-02
-4.5377972e-02
-5.6104928e-02
-7.5408103e-02
-9.6712015e-02
-1.1098326e-01
-1.1182177e-01
-9.7539505e-02
-7.1149641e-02
-4.1635535e-02
-1.9325045e-02
-9.0188382e-03
-7.7202366e-03
-7.3973378e-03
-1.5183170e-03
1.3116812e-02
3.6638266e-02
6.5332318e-02
9.3000316e-02
1.1243650e-01
1.1786538e-01
1.0723988e-01
8.3362296e-02
5.2811190e-02
2.2717522e-02
-1.5625282e-03
-1.8006302e-02
-2.7217768e-02
-3.0591691e-02
-2.9918754e-02
-2.6985861e-02
-2.3490436e-02
-2.1716065e-02
-2.4088360e-02
-3.1733596e-02
-4.4628881e-02
-6.1071142e-02
-7.7144303e-02
-8.8566456e-02
-9.1811369e-02
-8.4414733e-02
-6.5066567e-02
-3.4360835e-02
5.2594759e-03
4.8125727e-02
8.3955377e-02
1.0351433e-01
1.0315512e-01
8.5293013e-02
5.8054731e-02
3.0992210e-02
1.1122510e-02
1.8096539e-03
3.5707442e-03
1.5652794e-02
3.6187053e-02
6.0324613e-02
7.8240868e-02
7.9129293e-02
5.7788798e-02
1.8904338e-02
-2.4244082e-02
-5.7693614e-02
-7.2852808e-02
-6.8529632e-02
-4.8414078e-02
-1.9247914e-02
7.2502189e-03
1.8571585e-02
8.7262709e-03
-1.8911500e-02
-5.5645931e-02
-9.1280560e-02
-1.1700343e-01
-1.3058554e-01
-1.3305172e-01
-1.2432370e-01
-1.0376748e-01
-7.1702276e-02
-3.0897861e-02
1.3165918e-02
5.1844642e-02
7.6398263e-02
8.2337431e-02
7.1214022e-02
5.0162773e-02
2.7854766e-02
1.0919293e-02
2.6726765e-03
2.7255880e-03
8.4868501e-03
1.5788555e-02
2.0067938e-02
1.9221093e-02
1.4531933e-02
9.8522542e-03
9.8697716e-03
1.8316344e-02
3.6435039e-02
6.3174496e-02
9.5273393e-02
1.2562353e-01
1.4444803e-01
1.4246906e-01
1.1614252e-01
7.0807597e-02
1.6661499e-02
-3.6257259e-02
-8.0872148e-02
-1.1293739e-01
-1.3039459e-01
-1.3290742e-01
-1.2238577e-01
-1.0510538e-01
-8.9814794e-02
-8.4096638e-02
-8.7894169e-02
-9.1176085e-02
-8.3534854e-02
-5.9500884e-02
-1.8033025e-02
3.7054844e-02
9.6933041e-02
1.4793839e-01
1.7747093e-01
1.8064675e-01
1.6041128e-01
1.2384967e-01
7.8031455e-02
2.9028412e-02
-1.6963734e-02
-5.4594579e-02
-8.0602621e-02
-9.3957969e-02
-9.5179007e-02
-8.4652381e-02
-6.2563520e-02
-2.9850293e-02
1.0007210e-02
4.9115945e-02
7.7018010e-02
8.5775295e-02
7.5084769e-02
5.2321532e-02
2.7670832e-02
8.9545466e-03
-1.0650232e-03
-3.5222433e-03
-2.6164995e-03
-4.0684757e-03
-1.1066854e-02
-2.4078277e-02
-4.2961114e-02
-6.6756296e-02
-9.3366363e-02
-1.2040162e-01
-1.4453020e-01
-1.6082668e-01
-1.6458148e-01
-1.5255989e-01
-1.2375478e-01
-7.9866366e-02
-2.4973701e-02
3.5897277e-02
9.8361144e-02
1.5786733e-01
2.0851640e-01
2.4217750e-01
2.4986413e-01
2.2667194e-01
1.7565278e-01
1.0694773e-01
3.4052710e-02
-3.0480287e-02
-7.8644680e-02
-1.0657698e-01
-1.1336381e-01
-1.0065894e-01
-7.2454086e-02
-3.5007271e-02
4.0767097e-03
3.6585832e-02
5.6429055e-02
6.1268018e-02
5.1782296e-02
3.0834834e-02
3.0378262e-03
-2.5670828e-02
-5.0211402e-02
-6.7231627e-02
-7.5577257e-02
-7.6747560e-02
-7.4206849e-02
-7.1879699e-02
-7.1312851e-02
-7.1734306e-02
-7.1097290e-02
-6.6632113e-02
-5.6809648e-02
-4.0739351e-02
-1.7331444e-02
1.3611049e-02
5.0270096e-02
8.7539218e-02
1.1652618e-01
1.2708182e-01
1.1378084e-01
7.8264434e-02
2.7618518e-02
-2.7063140e-02
-7.4215766e-02
-1.0558053e-01
-1.1735787e-01
-1.0978928e-01
-8.6139276e-02
-4.9780408e-02
-2.7867325e-03
5.2381602e-02
1.1088083e-01
1.6315136e-01
1.9624814e-01
1.9970507e-01
1.7095680e-01
1.1646469e-01
4.9378493e-02
-1.5513251e-02
-6.7208888e-02
-9.9507849e-02
-1.1076367e-01
-1.0287909e-01
-8.0065326e-02
-4.8673831e-02
-1.5808946e-02
1.2346365e-02
3.1922453e-02
4.0842865e-02
3.7539435e-02
2.1483351e-02
-4.8978215e-03
-3.6911074e-02
-6.8835987e-02
-9.3517839e-02
-1.0526327e-01
-1.0136304e-01
-8.1467830e-02
-4.6893107e-02
-9.7542377e-04
4.7985861e-02
8.7076460e-02
1.0363720e-01
9.2373517e-02
5.7295531e-02
1.1787126e-02
-2.7711181e-02
-5.4109626e-02
-6.6221504e-02
-6.3273110e-02
-4.5666870e-02
-1.5870202e-02
1.9786434e-02
5.2940300e-02
7.6144676e-02
8.6487862e-02
8.5784172e-02
7.6556494e-02
6.0506740e-02
3.9480083e-02
1.6070325e-02
-6.0081904e-03
-2.2350681e-02
-3.0172734e-02
-2.8667488e-02
-1.9460559e-02
-7.9867111e-03
-1.1340421e-03
-4.6017884e-03
-2.0352893e-02
-4.5042743e-02
-7.2646851e-02
-9.8003456e-02
-1.1753482e-01
-1.2835444e-01
-1.2859141e-01
-1.1721844e-01
-9.4217411e-02
-6.1350287e-02
-2.2211214e-02
1.8055613e-02
5.6346242e-02
9.4017436e-02
1.3351654e-01
1.7424473e-01
2.0836711e-01
2.2056723e-01
1.9809574e-01
1.4173219e-01
6.7413256e-02
-3.6178961e-03
-5.7355911e-02
-8.9311879e-02
-1.0094906e-01
-9.6642482e-02
-8.2467980e-02
-6.6346381e-02
-5.6022970e-02
-5.6005810e-02
-6.4981799e-02
-7.7404724e-02
-8.7843336e-02
-9.2193815e-02
-8.7812214e-02
-7.2910911e-02
-4.5590089e-02
-5.1056843e-03
4.6674778e-02
1.0508187e-01
1.6074909e-01
1.9941581e-01
2.0974403e-01
1.9022596e-01
1.4788157e-01
9.3969835e-02
3.8441052e-02
-1.4131218e-02
-6.2354891e-02
-1.0377540e-01
-1.3409867e-01
-1.4840669e-01
-1.4321883e-01
-1.1880492e-01
-7.9706243e-02
-3.3320993e-02
1.0965966e-02
4.2926973e-02
5.5843186e-02
4.8433093e-02
2.3535976e-02
-1.1914194e-02
-4.7983091e-02
-7.5873182e-02
-9.0443898e-02
-8.9409830e-02
-7.3514058e-02
-4.4253349e-02
-2.3396737e-03
4.9609515e-02
1.0544194e-01
1.5461672e-01
1.8469581e-01
1.8662214e-01
1.5877871e-01
1.0768435e-01
4.4864643e-02
-1.7119356e-02
-6.8507237e-02
-1.0401544e-01
-1.2299940e-01
-1.2863978e-01
-1.2460741e-01
-1.1289228e-01
-9.3500691e-02
-6.4671017e-02
-2.5194705e-02
2.3125508e-02
7.4252963e-02
1.1722995e-01
1.4071705e-01
1.3994835e-01
1.1848491e-01
8.5095283e-02
4.8582827e-02
1.5070132e-02
-1.2152312e-02
-3.1458854e-02
-4.2801243e-02
-4.8471219e-02
-5.1514139e-02
-5.5382442e-02
-6.2983674e-02
-7.5037289e-02
-8.9709535e-02
-1.0246685e-01
-1.0864255e-01
-1.0531496e-01
-9.2192621e-02
-7.2053047e-02
-4.9244194e-02
-2.8475959e-02
-1.1263403e-02
5.5985901e-03
2.6209321e-02
5.2173618e-02
7.9661932e-02
9.9264100e-02
1.0212577e-01
8.6800576e-02
6.1272146e-02
3.8537813e-02
2.8602658e-02
3.4380243e-02
5.0573571e-02
6.4689220e-02
6.4203834e-02
4.3821743e-02
8.5060159e-03
-3.0013092e-02
-6.1224499e-02
-7.8757375e-02
-8.0003957e-02
-6.5192461e-02
-3.6422554e-02
3.4229954e-03
5.1723816e-02
1.0502503e-01
1.5714110e-01
1.9630981e-01
2.0754271e-01
1.8181245e-01
1.2357740e-01
4.8951816e-02
-2.4173837e-02
-8.3145456e-02
-1.2201419e-01
-1.3996133e-01
-1.3982481e-01
-1.2733280e-01
-1.0945984e-01
-9.2889342e-02
-8.1058965e-02
-7.3825557e-02
-7.0790346e-02
-7.3803660e-02
-8.1160943e-02
-8.5018370e-02
-8.1320292e-02
-6.9844925e-02
-5.0459884e-02
-2.4538741e-02
4.3855763e-03
2.7473147e-02
3.4072886e-02
2.1477892e-02
-2.8141171e-03
-2.6948784e-02
-4.1636128e-02
-4.3649993e-02
-3.4264436e-02
-1.5709609e-02
9.9627580e-03
4.1356133e-02
7.7550641e-02
1.1643067e-01
1.5403268e-01
1.8441167e-01
1.9963975e-01
1.9079145e-01
1.5353419e-01
9.2917163e-02
2.1888627e-02
-4.3437438e-02
-9.1194028e-02
-1.1691197e-01
-1.2097913e-01
-1.0654235e-01
-7.8395682e-02
-4.2082075e-02
-3.5880025e-03
3.0457017e-02
5.3767722e-02
6.2155600e-02
5.6422504e-02
4.3037688e-02
2.9806133e-02
2.2410209e-02
2.1858618e-02
2.2625579e-02
1.5441863e-02
-6.1415282e-03
-4.0090889e-02
-7.7972704e-02
-1.1214544e-01
-1.3831946e-01
-1.5448394e-01
-1.6033320e-01
-1.5588626e-01
-1.4024679e-01
-1.1272817e-01
-7.3695825e-02
-2.4459224e-02
3.2018999e-02
9.0845555e-02
1.4486075e-01
1.8522411e-01
2.0394771e-01
1.9754571e-01
1.6934730e-01
1.2764435e-01
8.2776492e-02
4.3803758e-02
1.4741449e-02
-5.7466177e-03
-2.1447520e-02
-3.5289707e-02
-4.7905320e-02
-5.8445150e-02
-6.5941439e-02
-7.0044455e-02
-7.1258920e-02
-7.0559833e-02
-6.8181466e-02
-6.3166543e-02
-5.3861909e-02
-3.9231624e-02
-2.0750988e-02
-2.0317666e-03
1.3121805e-02
2.2187513e-02
2.4779208e-02
2.1879441e-02
1.4486176e-02
2.7417935e-03
-1.3444745e-02
-3.1955080e-02
-4.8403018e-02
-5.7844070e-02
-5.6031418e-02
-4.2114322e-02
-1.7565412e-02
1.6726007e-02
5.8324762e-02
1.0035258e-01
1.3044118e-01
1.3719323e-01
1.1970567e-01
8.6612293e-02
4.8185888e-02
9.7126631e-03
-2.8271627e-02
-6.3775001e-02
-9.0968421e-02
-1.0309234e-01
-9.5390803e-02
-6.8001576e-02
-2.6422742e-02
1.9670998e-02
5.9195508e-02
8.7034678e-02
1.0765468e-01
1.2762349e-01
1.4482291e-01
1.4657636e-01
1.1749374e-01
5.4270375e-02
-2.7084596e-02
-1.0373417e-01
-1.5939693e-01
-1.8825594e-01
-1.9322710e-01
-1.8026525e-01
-1.5584851e-01
-1.2501237e-01
-8.8516272e-02
-4.5575000e-02
2.6689939e-03
5.2661010e-02
9.7588142e-02
1.2949764e-01
1.4387487e-01
1.3997996e-01
1.1924589e-01
8.6115062e-02
4.8566113e-02
1.5485598e-02
-5.6674966e-03
-1.1936966e-02
-7.8853853e-03
-2.9964417e-03
-7.2366936e-03
-2.4475662e-02
-4.8707431e-02
-6.9570754e-02
-7.8658704e-02
-7.2749511e-02
-5.4106065e-02
-2.9630081e-02
-8.7934414e-03
2.7614545e-03
6.9001736e-03
1.0030122e-02
1.8765871e-02
3.6368520e-02
6.1082120e-02
8.6428986e-02
1.0233590e-01
1.0018335e-01
7.9148586e-02
4.5740132e-02
8.8947224e-03
-2.3803207e-02
-4.9568542e-02
-7.0613269e-02
-8.9559511e-02
-1.0570974e-01
-1.1567011e-01
-1.1655021e-01
-1.0721428e-01
-8.8413433e-02
-6.2494396e-02
-3.3621551e-02
-8.3892051e-03
7.2268568e-03
9.4190872e-03
5.2202779e-03
1.2217750e-02
3.7464047e-02
7.7104493e-02
1.2429518e-01
1.6429953e-01
1.7893596e-01
1.5751578e-01
1.0481552e-01
4.0568825e-02
-1.4778570e-02
-5.0928920e-02
-6.7097744e-02
-6.7848230e-02
-5.8600034e-02
-4.3985273e-02
-2.7854155e-02
-1.5138502e-02
-1.0741458e-02
-1.5011603e-02
-2.3060479e-02
-2.7593355e-02
-2.3960919e-02
-1.2565214e-02
7.6361925e-04
6.4233176e-03
-2.1990363e-03
-2.5988146e-02
-5.9865334e-02
-9.3052184e-02
-1.1508069e-01
-1.1980255e-01
-1.0536942e-01
-7.3764544e-02
-2.9058096e-02
2.4324311e-02
8.0914545e-02
1.3332949e-01
1.7442243e-01
1.9826993e-01
2.0111827e-01
1.8335416e-01
1.4815274e-01
1.0026232e-01
4.5948390e-02
-8.4241711e-03
-5.7155692e-02
-9.5678806e-02
-1.2153834e-01
-1.3448102e-01
-1.3608147e-01
-1.2869082e-01
-1.1387825e-01
-9.1648489e-02
-6.1547308e-02
-2.4164550e-02
1.7042952e-02
5.4338526e-02
7.9742516e-02
8.8682782e-02
8.1261936e-02
6.2656038e-02
3.8703292e-02
1.3749667e-02
-8.3276083e-03
-2.4926053e-02
-3.4623014e-02
-3.6518647e-02
-3.1554164e-02
-2.3262450e-02
-1.6840290e-02
-1.8010292e-02
-2.9102815e-02
-4.5549114e-02
-5.9277191e-02
-6.3928734e-02
-5.6545399e-02
-3.7749219e-02
-9.9472914e-03
2.5557762e-02
6.7707164e-02
1.1227509e-01
1.5006251e-01
1.6791628e-01
1.5576602e-01
1.1644131e-01
6.5195868e-02
1.8588475e-02
-1.4267272e-02
-3.3010383e-02
-4.3467556e-02
-5.3802266e-02
-6.9237043e-02
-8.9299868e-02
-1.0966044e-01
-1.2484232e-01
-1.3077296e-01
-1.2559915e-01
-1.0879183e-01
-8.0627659e-02
-4.1415391e-02
8.5111664e-03
6.6142442e-02
1.2274015e-01
1.6393631e-01
1.7624864e-01
1.5864449e-01
1.2387462e-01
8.6375202e-02
5.4260993e-02
2.7399021e-02
-1.0223525e-03
-3.5727825e-02
-7.2502377e-02
-1.0197123e-01
-1.1644910e-01
-1.1295787e-01
-9.4364035e-02
-6.8317039e-02
-4.4589675e-02
-2.9569289e-02
-2.2876537e-02
-2.1460257e-02
-2.2683586e-02
-2.4802648e-02
-2.6008232e-02
-2.3088427e-02
-1.3809719e-02
9.1521626e-04
1.7004393e-02
2.8838015e-02
3.3070891e-02
3.2372511e-02
3.3996597e-02
4.3336631e-02
6.1968959e-02
8.6565255e-02
1.0671725e-01
1.1029034e-01
9.0671577e-02
5.1591402e-02
5.9837010e-03
-3.3635138e-02
-6.0598262e-02
-7.3846336e-02
-7.7483012e-02
-7.7176643e-02
-7.6690469e-02
-7.6413392e-02
-7.2913351e-02
-6.0810220e-02
-3.5911187e-02
3.1572305e-03
5.5265510e-02
1.1504922e-01
1.6944453e-01
1.9740278e-01
1.8022432e-01
1.2000369e-01
4.1884794e-02
-2.6931040e-02
-7.1927011e-02
-8.9468874e-02
-8.5207204e-02
-7.4050716e-02
-7.4234467e-02
-9.4374336e-02
-1.2667871e-01
-1.5518508e-01
-1.6714155e-01
-1.5803811e-01
-1.2901828e-01
-8.3991413e-02
-2.9464291e-02
2.6201480e-02
7.1871671e-02
9.6933395e-02
9.7983534e-02
8.0018230e-02
5.3046722e-02
3.0273413e-02
2.2226543e-02
2.6960249e-02
3.5543514e-02
4.4698573e-02
5.8279837e-02
8.1688953e-02
1.1688964e-01
1.5760908e-01
1.8630770e-01
1.8312226e-01
1.4215536e-01
7.8596816e-02
1.7154680e-02
-2.6557065e-02
-4.8696334e-02
-5.2891852e-02
-4.9661889e-02
-5.1655860e-02
-6.7156173e-02
-9.5102747e-02
-1.2564288e-01
-1.4748715e-01
-1.5420267e-01
-1.4537589e-01
-1.2484640e-01
-9.8579653e-02
-7.2378480e-02
-4.9169258e-02
-2.8197935e-02
-6.8008377e-03
1.8184890e-02
4.9194899e-02
8.7185839e-02
1.3089557e-01
1.7486281e-01
2.0795671e-01
2.1479905e-01
1.8473615e-01
1.2071074e-01
3.8749543e-02
-4.0009998e-02
-9.9693108e-02
-1.3421880e-01
-1.4531367e-01
-1.3793425e-01
-1.1769814e-01
-9.0272249e-02
-6.0384474e-02
-3.1605717e-02
-5.7403172e-03
1.6177812e-02
3.2585405e-02
4.0931153e-02
3.7752048e-02
2.1164126e-02
-6.3695552e-03
-3.7835200e-02
-6.5445276e-02
-8.4069303e-02
-9.1591629e-02
-8.7925319e-02
-7.4063260e-02
-5.1849466e-02
-2.4276122e-02
3.0428504e-03
2.2618521e-02
2.9122775e-02
2.3004680e-02
1.1224775e-02
3.7677432e-03
7.7411679e-03
2.4124425e-02
4.8428756e-02
7.1959438e-02
8.3918138e-02
7.7423750e-02
5.5467743e-02
3.0272322e-02
1.6634775e-02
2.3386195e-02
5.3234561e-02
1.0609041e-01
1.6969943e-01
2.1318789e-01
2.0376922e-01
1.3410877e-01
2.9857218e-02
-7.2684798e-02
-1.5031763e-01
-1.9602703e-01
-2.1194767e-01
-2.0570944e-01
-1.8747254e-01
-1.6512921e-01
-1.4106263e-01
-1.1182421e-01
-7.2518819e-02
-2.1066716e-02
4.2567356e-02
1.1699555e-01
1.9630746e-01
2.6312283e-01
2.8755189e-01
2.4816259e-01
1.5561069e-01
4.6073678e-02
-4.6446911e-02
-1.0758213e-01
-1.3810643e-01
-1.4628728e-01
-1.4631982e-01
-1.4786145e-01
-1.4808825e-01
-1.3978747e-01
-1.1772741e-01
-8.0406431e-02
-3.3078885e-02
1.1108217e-02
3.5750303e-02
3.5869556e-02
2.3721240e-02
1.5456053e-02
2.0452807e-02
3.8199762e-02
5.9091398e-02
7.1912137e-02
7.1976321e-02
6.3982512e-02
5.7354804e-02
5.9032400e-02
7.1129766e-02
9.0258108e-02
1.0832989e-01
1.1726048e-01
1.1252525e-01
9.3849391e-02
6.3030340e-02
2.1534947e-02
-2.8986590e-02
-8.3698904e-02
-1.3350122e-01
-1.6951158e-01
-1.8712750e-01
-1.8656279e-01
-1.7039749e-01
-1.4180973e-01
-1.0597820e-01
-6.7203657e-02
-2.5173840e-02
2.2139845e-02
7.6764532e-02
1.3958309e-01
2.0595766e-01
2.6245316e-01
2.8801166e-01
2.6584754e-01
1.9805069e-01
1.0571249e-01
1.4302735e-02
-6.0211005e-02
-1.1380519e-01
-1.4998004e-01
-1.7514907e-01
-1.9440550e-01
-2.0881378e-01
-2.1628899e-01
-2.1399086e-01
-2.0040651e-01
-1.7533926e-01
-1.3818977e-01
-8.8939841e-02
-2.9529304e-02
3.6325738e-02
9.9794708e-02
1.4479626e-01
1.5654197e-01
1.3293841e-01
8.6789645e-02
3.6900314e-02
-5.0422156e-04
-1.6072177e-02
-1.0520909e-02
1.1655314e-02
4.6229415e-02
8.6445978e-02
1.2222463e-01
1.4052152e-01
1.3180575e-01
9.7471838e-02
4.9540943e-02
2.3540348e-03
-3.5542748e-02
-6.2199594e-02
-7.9750265e-02
-9.0153439e-02
-9.2103277e-02
-8.2450574e-02
-5.9433403e-02
-2.3403348e-02
2.1763186e-02
6.4851081e-02
8.9799527e-02
8.5370356e-02
5.5702216e-02
1.8649593e-02
-8.1279948e-03
-1.5718005e-02
-5.4853187e-03
1.3119244e-02
2.7646790e-02
2.7784942e-02
1.1844584e-02
-1.1817383e-02
-3.3027125e-02
-4.5125235e-02
-4.5317171e-02
-3.5442188e-02
-2.0015075e-02
-3.9611411e-03
8.2211182e-03
1.3398217e-02
1.0581660e-02
-1.6056824e-04
-1.8060773e-02
-3.9309454e-02
-5.7497795e-02
-6.6470762e-02
-6.2871274e-02
-4.7214675e-02
-2.2209696e-02
9.9775194e-03
4.6909864e-02
8.3655604e-02
1.1353795e-01
1.2843788e-01
1.2285674e-01
9.8777362e-02
6.4011317e-02
2.8213533e-02
-1.9333592e-03
-2.4934579e-02
-4.3654807e-02
-6.2787113e-02
-8.4775869e-02
-1.0786503e-01
-1.2721314e-01
-1.3885889e-01
-1.4182156e-01
-1.3734206e-01
-1.2784486e-01
-1.1391229e-01
-9.2814424e-02
-6.1745582e-02
-2.0550395e-02
3.0617806e-02
9.1680216e-02
1.5604342e-01
2.0515532e-01
2.1497446e-01
1.7738438e-01
1.1115215e-01
4.4499578e-02
-3.6925051e-03
-2.7052630e-02
-2.7927352e-02
-1.3113887e-02
7.4005314e-03
2.2140244e-02
2.3945546e-02
1.4469983e-02
1.8956441e-03
-5.2121245e-03
-1.9115552e-03
1.1851511e-02
3.2342752e-02
5.2205104e-02
6.0525574e-02
4.9686602e-02
2.1782179e-02
-1.3310920e-02
-4.4432227e-02
-6.5120170e-02
-7.4876389e-02
-7.7759952e-02
-8.0277493e-02
-8.6727703e-02
-9.6875967e-02
-1.0660315e-01
-1.0946198e-01
-1.0080110e-01
-8.0142588e-02
-5.2043963e-02
-2.5340911e-02
-6.8394917e-03
3.4560098e-03
1.0991008e-02
2.2581428e-02
4.2563145e-02
7.0411235e-02
9.7688588e-02
1.1034728e-01
1.0036770e-01
7.3392205e-02
4.4282779e-02
2.6937255e-02
2.7655587e-02
4.6160252e-02
7.6246416e-02
1.0352914e-01
1.1136840e-01
9.1724860e-02
5.0419880e-02
2.8858696e-03
-3.7223367e-02
-6.3434662e-02
-7.4791801e-02
-7.3920299e-02
-6.5254632e-02
-5.4167662e-02
-4.6590913e-02
-4.7396554e-02
-5.6524407e-02
-6.8714743e-02
-7.7368165e-02
-7.6656385e-02
-6.3571915e-02
-3.9291053e-02
-9.4078932e-03
1.7090847e-02
3.3982902e-02
4.2736164e-02
5.0257946e-02
6.3872199e-02
8.6331596e-02
1.1354431e-01
1.3544721e-01
1.4058637e-01
1.2499639e-01
9.4393157e-02
5.7692701e-02
2.1731248e-02
-1.0936685e-02
-4.0725752e-02
-6.7741299e-02
-8.9902788e-02
-1.0385917e-01
-1.0884350e-01
-1.0769710e-01
-1.0388745e-01
-9.8778809e-02
-9.0729674e-02
-7.6891211e-02
-5.5865852e-02
-2.8440002e-02
3.3393012e-03
3.4677167e-02
5.7205426e-02
6.2573439e-02
4.4763122e-02
1.1268963e-02
-1.7422084e-02
-3.1155360e-02
-3.0575505e-02
-1.7823526e-02
1.1013102e-03
1.7865099e-02
2.4852613e-02
1.9727842e-02
7.9692089e-03
-2.2107731e-03
-4.7706784e-03
1.7317744e-03
1.3738050e-02
2.4588001e-02
2.6144268e-02
1.4012475e-02
-8.3923704e-03
-3.2190792e-02
-4.7234805e-02
-4.6914561e-02
-2.9905421e-02
-2.3602205e-04
3.2163854e-02
5.5447287e-02
6.2118390e-02
5.3733704e-02
3.8453443e-02
2.2828145e-02
8.5594926e-03
-6.1885196e-03
-2.4147952e-02
-4.4510959e-02
-6.1843629e-02
-7.0207075e-02
-6.5560880e-02
-4.6348266e-02
-1.3520213e-02
3.0301673e-02
7.9723016e-02
1.2481622e-01
1.5208374e-01
1.5110801e-01
1.2057690e-01
6.9470643e-02
1.3633425e-02
-3.2915695e-02
-6.2708979e-02
-7.4225909e-02
-7.0359628e-02
-5.6475947e-02
-3.9723398e-02
-2.7203304e-02
-2.3271958e-02
-2.8289057e-02
-3.9979181e-02
-5.5755075e-02
-7.2167606e-02
-8.4798655e-02
-9.0020374e-02
-8.5151808e-02
-6.9208763e-02
-4.3476620e-02
-9.1212330e-03
3.2665748e-02
7.9247719e-02
1.2666181e-01
1.6857940e-01
1.9584953e-01
1.9844541e-01
1.7115854e-01
1.1884312e-01
5.5645210e-02
-2.2308513e-03
-4.4833700e-02
-6.9628067e-02
-7.8990471e-02
-7.8541208e-02
-7.4406306e-02
-7.0496611e-02
-6.7392175e-02
-6.3689239e-02
-5.9081197e-02
-5.7058487e-02
-6.3318139e-02
-7.9661571e-02
-1.0081643e-01
-1.1818683e-01
-1.2466002e-01
-1.1620286e-01
-9.2812276e-02
-5.7616472e-02
-1.4345269e-02
3.3998034e-02
8.4991646e-02
1.3657519e-01
1.8436665e-01
2.1771596e-01
2.2279431e-01
1.9001709e-01
1.2326960e-01
4.1540950e-02
-3.3709616e-02
-8.8292237e-02
-1.1684295e-01
-1.2099289e-01
-1.0552103e-01
-7.5888997e-02
-3.7708569e-02
3.9068120e-03
4.5416846e-02
8.4432882e-02
1.1806649e-01
1.4073116e-01
1.4462703e-01
1.2391068e-01
7.9862099e-02
2.2516771e-02
-3.4095852e-02
-7.8439261e-02
-1.0502111e-01
-1.1324741e-01
-1.0605386e-01
-8.9503657e-02
-6.9784197e-02
-5.0468547e-02
-3.2104781e-02
-1.3292764e-02
6.9171083e-03
2.6987902e-02
4.3249529e-02
5.0949579e-02
4.7097455e-02
3.3465935e-02
1.5074861e-02
-2.3566660e-03
-1.4883099e-02
-2.1529551e-02
-2.3078150e-02
-2.1571629e-02
-1.9435320e-02
-1.8615810e-02
-2.0474342e-02
-2.5647416e-02
-3.3541920e-02
-4.1842515e-02
-4.7750007e-02
-4.9179923e-02
-4.4900891e-02
-3.4648982e-02
-1.9199841e-02
-5.0961000e-04
1.8487573e-02
3.4748948e-02
4.6216506e-02
5.1948209e-02
5.2388550e-02
5.0073813e-02
4.8070428e-02
4.9140140e-02
5.4952420e-02
6.4069612e-02
7.2454431e-02
7.3028198e-02
5.7599799e-02
2.3819687e-02
-2.2124590e-02
-6.9214220e-02
-1.0652715e-01
-1.2693742e-01
-1.2838680e-01
-1.1198790e-01
-8.0662759e-02
-3.8915936e-02
6.3165835e-03
4.4759894e-02
6.6902394e-02
6.9252898e-02
5.5280289e-02
3.0447129e-02
2.7239200e-03
-1.6365578e-02
-2.1665619e-02
-1.4288041e-02
2.8177755e-03
2.2952108e-02
3.7650556e-02
3.9496750e-02
2.6069817e-02
3.0394571e-03
-1.9996658e-02
-3.5783740e-02
-4.1775055e-02
-4.0099202e-02
-3.6069487e-02
-3.4296328e-02
-3.6089824e-02
-3.9348514e-02
-3.9930615e-02
-3.4891821e-02
-2.4625942e-02
-1.2883716e-02
-4.6523756e-03
-3.2188864e-03
-7.6558185e-03
-1.2385841e-02
-1.1183823e-02
1.8685728e-04
2.3302086e-02
5.5226639e-02
8.8834901e-02
1.1547941e-01
1.2976736e-01
1.3249275e-01
1.2773752e-01
1.1823455e-01
1.0248810e-01
7.6207060e-02
3.8555065e-02
-4.3216370e-03
-4.3016252e-02
-7.0020464e-02
-8.2581409e-02
-8.3143482e-02
-7.8261939e-02
-7.5786746e-02
-7.9275612e-02
-8.6178355e-02
-9.0904443e-02
-8.8018882e-02
-7.5425672e-02
-5.3885676e-02
-2.5831325e-02
4.0315278e-03
3.0606807e-02
4.9423840e-02
5.7165406e-02
5.3172542e-02
3.9295712e-02
1.7887429e-02
-8.2915584e-03
-3.4492114e-02
-5.5186517e-02
-6.5262452e-02
-6.1487503e-02
-4.3866293e-02
-1.5258655e-02
1.9112498e-02
5.2560928e-02
7.8016719e-02
9.1120383e-02
9.2159618e-02
8.3914689e-02
6.9571561e-02
5.1715922e-02
3.1589333e-02
9.8465101e-03
-1.1582501e-02
-2.9273262e-02
-3.9594854e-02
-4.0360680e-02
-3.2790672e-02
-2.0781034e-02
-7.8168152e-03
4.4542707e-03
1.5389649e-02
2.3553136e-02
2.5900924e-02
1.8999820e-02
2.2236828e-03
-2.0178701e-02
-4.2001436e-02
-5.8356763e-02
-6.5762669e-02
-6.2785528e-02
-5.0366152e-02
-3.1076179e-02
-8.7604008e-03
1.2415276e-02
2.9784131e-02
4.1771071e-02
4.5533034e-02
3.8061860e-02
1.7392564e-02
-1.5303182e-02
-5.2446761e-02
-8.3760386e-02
-1.0192133e-01
-1.0397502e-01
-9.1136983e-02
-6.7304328e-02
-3.5473417e-02
3.3885023e-03
4.7777167e-02
9.4183964e-02
1.3676833e-01
1.6761565e-01
1.7981674e-01
1.7026616e-01
1.3870309e-01
8.8414929e-02
2.7730814e-02
-3.2026141e-02
-8.0076584e-02
-1.1008350e-01
-1.2115846e-01
-1.1606156e-01
-9.8534192e-02
-7.2909751e-02
-4.5450356e-02
-2.1958520e-02
-6.3693855e-03
-1.0919644e-04
-2.7543938e-04
-1.5156507e-03
7.0422426e-04
8.9896048e-03
2.4163852e-02
4.4838158e-02
6.8277951e-02
9.0053342e-02
1.0280849e-01
1.0075222e-01
8.2902722e-02
5.2225573e-02
1.4892746e-02
-2.2685918e-02
-5.6668180e-02
-8.5109758e-02
-1.0655061e-01
-1.1943705e-01
-1.2184856e-01
-1.1178618e-01
-8.8467687e-02
-5.3674770e-02
-1.0399579e-02
3.7910540e-02
8.6298538e-02
1.2902763e-01
1.5958084e-01
1.7031565e-01
1.5504646e-01
1.1375650e-01
5.3388105e-02
-1.5085071e-02
-7.8904909e-02
-1.2802967e-01
-1.5796772e-01
-1.6817154e-01
-1.6047255e-01
-1.3760601e-01
-1.0157671e-01
-5.4710314e-02
-2.2560811e-03
4.6873785e-02
8.1245550e-02
9.2123043e-02
7.9158478e-02
4.9888165e-02
1.3758461e-02
-1.8966498e-02
-3.8720874e-02
-4.3999141e-02
-3.7295204e-02
-2.0245385e-02
3.7965091e-03
2.9397514e-02
4.9063530e-02
5.5517900e-02
4.5951324e-02
2.4341338e-02
-1.2329350e-03
-2.3204192e-02
-3.6173195e-02
-3.7702462e-02
-2.7598536e-02
-7.2676306e-03
1.9395642e-02
4.7448398e-02
7.3522573e-02
9.5876703e-02
1.1250348e-01
1.2029775e-01
1.1557878e-01
9.5791036e-02
6.1708824e-02
1.8162134e-02
-2.8198907e-02
-7.1460993e-02
-1.0693564e-01
-1.3229880e-01
-1.4779276e-01
-1.5471553e-01
-1.5456284e-01
-1.4758273e-01
-1.3230353e-01
-1.0726453e-01
-7.1968938e-02
-2.8261640e-02
1.7892749e-02
5.9444859e-02
9.1980677e-02
1.1449661e-01
1.2952591e-01
1.3975964e-01
1.4469507e-01
1.4159628e-01
1.2775638e-01
1.0288459e-01
7.0223183e-02
3.5087591e-02
2.1479002e-03
-2.6141181e-02
-4.8815830e-02
-6.5199886e-02
-7.4953828e-02
-7.7759020e-02
-7.2496647e-02
-5.8742230e-02
-3.7933691e-02
-1.3498596e-02
8.7861904e-03
2.3657493e-02
2.9481242e-02
2.8592036e-02
2.5738113e-02
2.4626052e-02
2.5835457e-02
2.7165010e-02
2.5380536e-02
1.8320899e-02
5.2237241e-03
-1.3218295e-02
-3.4395015e-02
-5.4447379e-02
-6.9146567e-02
-7.5587153e-02
-7.3399573e-02
-6.4132200e-02
-5.0356844e-02
-3.4898501e-02
-2.0027489e-02
-6.3941089e-03
6.3156825e-03
1.7878996e-02
2.6423899e-02
2.9336777e-02
2.6856137e-02
2.2565860e-02
2.0930919e-02
2.4634537e-02
3.2323114e-02
3.8349664e-02
3.5356095e-02
1.9278562e-02
-8.6370879e-03
-4.2285843e-02
-7.2088016e-02
-8.9565172e-02
-8.9992562e-02
-7.2002684e-02
-3.7145799e-02
1.0385413e-02
6.4625566e-02
1.1845940e-01
1.6401835e-01
1.9433478e-01
2.0403912e-01
1.8985080e-01
1.5285045e-01
9.8711774e-02
3.4801431e-02
-3.1072566e-02
-9.1343661e-02
-1.4027771e-01
-1.7399709e-01
-1.9051333e-01
-1.9016522e-01
-1.7528647e-01
-1.4889522e-01
-1.1420437e-01
-7.5025752e-02
-3.5388209e-02
-1.6948004e-04
2.6363920e-02
4.3523480e-02
5.3049507e-02
5.7664538e-02
6.0757926e-02
6.4808964e-02
7.0896991e-02
7.9610897e-02
8.9249960e-02
9.4038963e-02
8.6958953e-02
6.2764308e-02
2.2441619e-02
-2.4371034e-02
-6.5869703e-02
-9.4032056e-02
-1.0612306e-01
-1.0447964e-01
-9.3459787e-02
-7.6597309e-02
-5.5744478e-02
-3.1114870e-02
-3.0045676e-03
2.7871239e-02
6.0973450e-02
9.4806409e-02
1.2663215e-01
1.5074721e-01
1.5864077e-01
1.4435767e-01
1.0917346e-01
6.1373721e-02
1.1857737e-02
-3.0364773e-02
-6.1045973e-02
-7.9754461e-02
-8.7302004e-02
-8.4592720e-02
-7.3355078e-02
-5.7686141e-02
-4.2987713e-02
-3.4496803e-02
-3.5111465e-02
-4.3930443e-02
-5.6595816e-02
-6.6230195e-02
-6.6734085e-02
-5.4295263e-02
-2.8320993e-02
7.7408830e-03
4.6420994e-02
7.4643735e-02
7.9799280e-02
5.9609708e-02
2.1881858e-02
-2.3237359e-02
-6.4542030e-02
-9.0811584e-02
-9.8534281e-02
-8.8785712e-02
-6.2048195e-02
-1.9757517e-02
3.4031884e-02
9.0621859e-02
1.3709210e-01
1.6049779e-01
1.5531697e-01
1.2611610e-01
8.2775006e-02
3.5125812e-02
-9.8602529e-03
-4.8375979e-02
-7.8510341e-02
-9.9100246e-02
-1.0954305e-01
-1.0902805e-01
-9.6584964e-02
-7.2347238e-02
-3.8271567e-02
2.3002820e-03
4.5117618e-02
8.4778209e-02
1.1575649e-01
1.3277017e-01
1.3179492e-01
1.1220606e-01
7.7307582e-02
3.3837811e-02
-9.7732030e-03
-4.5550197e-02
-6.8424733e-02
-7.6337790e-02
-6.9289699e-02
-5.0557975e-02
-2.7150788e-02
-8.7751804e-03
-3.2302108e-03
-1.1768504e-02
-2.9372184e-02
-4.8444897e-02
-6.3074923e-02
-6.9651985e-02
-6.6468304e-02
-5.3857640e-02
-3.3834599e-02
-9.9332130e-03
1.4303660e-02
3.6802410e-02
5.6517638e-02
7.2710324e-02
8.4386061e-02
8.8547959e-02
8.1195846e-02
6.0969863e-02
3.0664708e-02
-3.0992189e-03
-3.2406254e-02
-5.1492793e-02
-5.7941247e-02
-5.1495445e-02
-3.3923717e-02
-9.7731837e-03
1.4127256e-02
2.9447450e-02
3.1056181e-02
2.1536564e-02
8.8334584e-03
1.7477743e-03
5.3020369e-03
1.8924615e-02
3.8226319e-02
5.5218560e-02
5.9807644e-02
4.5119420e-02
1.2757338e-02
-2.8396147e-02
-6.8237247e-02
-9.8420894e-02
-1.1430190e-01
-1.1550289e-01
-1.0387533e-01
-8.2383281e-02
-5.4196458e-02
-2.1737482e-02
1.2940912e-02
4.7078561e-02
7.7001778e-02
9.8304275e-02
1.0672521e-01
1.0019295e-01
8.0694313e-02
5.3386682e-02
2.4448013e-02
-6.1531886e-04
-1.9010311e-02
-3.0046578e-02
-3.4283294e-02
-3.3810051e-02
-3.1262567e-02
-2.8525448e-02
-2.5753511e-02
-2.2012939e-02
-1.6605780e-02
-1.0404512e-02
-6.1313841e-03
-6.1446414e-03
-9.7854541e-03
-1.3348401e-02
-1.2635122e-02
-4.6555851e-03
1.0555831e-02
2.8556652e-02
4.1361596e-02
4.0187163e-02
2.1734221e-02
-8.8913719e-03
-4.2510175e-02
-7.0060607e-02
-8.5198995e-02
-8.5888946e-02
-7.4282059e-02
-5.5942591e-02
-3.6705567e-02
-1.9007848e-02
-1.3430585e-03
1.9920958e-02
4.6914087e-02
7.9219200e-02
1.1406581e-01
1.4426619e-01
1.6049981e-01
1.5510185e-01
1.2525360e-01
7.6700572e-02
2.1716923e-02
-2.7089247e-02
-6.1750105e-02
-8.0111081e-02
-8.4205916e-02
-7.7633794e-02
-6.4285164e-02
-4.8347706e-02
-3.2820808e-02
-2.0475203e-02
-1.4527161e-02
-1.5620655e-02
-2.0921166e-02
-2.5272911e-02
-2.2760305e-02
-9.9223516e-03
1.2415071e-02
4.0902983e-02
6.9337754e-02
8.8232677e-02
8.9401087e-02
6.9587985e-02
3.1305464e-02
-1.8311364e-02
-7.0212856e-02
-1.1586772e-01
-1.4904699e-01
-1.6624337e-01
-1.6691847e-01
-1.5373490e-01
-1.3104654e-01
-1.0195141e-01
-6.6518523e-02
-2.2039949e-02
3.4185422e-02
1.0141014e-01
1.7152623e-01
2.2544754e-01
2.4251148e-01
2.1652648e-01
1.5860506e-01
8.7044532e-02
1.9000378e-02
-3.3547224e-02
-6.7040078e-02
-8.1836353e-02
-7.8922892e-02
-6.0377537e-02
-2.9958891e-02
3.6810724e-03
2.8707708e-02
3.7061391e-02
3.0169332e-02
1.6145591e-02
2.3940407e-03
-7.0246202e-03
-1.0995557e-02
-9.1341276e-03
-1.0026866e-03
1.2107482e-02
2.6982305e-02
3.9136058e-02
4.3613732e-02
3.7055152e-02
1.9408327e-02
-6.5986610e-03
-3.6154756e-02
-6.4023663e-02
-8.6540547e-02
-1.0163599e-01
-1.0888963e-01
-1.0864514e-01
-1.0171238e-01
-8.9659666e-02
-7.3418216e-02
-5.3141851e-02
-2.9092279e-02
-2.0198589e-03
2.6224837e-02
5.2677196e-02
7.4641101e-02
9.0637398e-02
1.0005259e-01
1.0244704e-01
9.7610496e-02
8.6325995e-02
7.1105154e-02
5.5988444e-02
4.4507869e-02
3.8929313e-02
3.9712665e-02
4.3707488e-02
4.4981546e-02
3.7407393e-02
1.8243081e-02
-9.3542367e-03
-3.8134306e-02
-6.0915712e-02
-7.4161518e-02
-7.8889788e-02
-7.9106138e-02
-7.8775050e-02
-7.8491212e-02
-7.5451949e-02
-6.7013367e-02
-5.2481888e-02
-3.3963953e-02
-1.7046958e-02
-7.8503273e-03
-1.0672953e-02
-2.5481984e-02
-4.6241695e-02
-6.5081725e-02
-7.6021878e-02
-7.5838117e-02
-6.3899563e-02
-4.1563161e-02
-1.1727221e-02
2.2163228e-02
5.7372991e-02
9.1937145e-02
1.2452929e-01
1.5467004e-01
1.8056602e-01
1.9769673e-01
2.0039106e-01
1.8455489e-01
1.5047865e-01
1.0347893e-01
5.1211372e-02
-4.7655504e-06
-4.6200689e-02
-8.5110775e-02
-1.1560644e-01
-1.3665525e-01
-1.4741099e-01
-1.4793169e-01
-1.3841827e-01
-1.1898951e-01
-9.0188504e-02
-5.3634426e-02
-1.3408295e-02
2.3435318e-02
4.8059778e-02
5.4219984e-02
4.2358503e-02
1.9272904e-02
-5.2991947e-03
-2.3641292e-02
-3.2508563e-02
-3.3558713e-02
-3.2373216e-02
-3.4320592e-02
-4.1823835e-02
-5.3752482e-02
-6.5326887e-02
-7.0444504e-02
-6.4716420e-02
-4.6470678e-02
-1.6574103e-02
2.1881298e-02
6.3428747e-02
9.9218172e-02
1.1925360e-01
1.1867802e-01
1.0079328e-01
7.5336025e-02
5.3869354e-02
4.4412580e-02
5.0035955e-02
6.8067848e-02
8.8971084e-02
9.9612067e-02
8.9735204e-02
5.8994067e-02
1.7330889e-02
-2.3000996e-02
-5.4525454e-02
-7.6455394e-02
-9.1958092e-02
-1.0407810e-01
-1.1308647e-01
-1.1550311e-01
-1.0672648e-01
-8.4763428e-02
-5.0436592e-02
-8.3376449e-03
3.1248165e-02
5.6481738e-02
6.0104746e-02
4.3565736e-02
1.6932561e-02
-8.1310828e-03
-2.3783082e-02
-2.7307342e-02
-2.0372788e-02
-6.2143859e-03
1.1859989e-02
3.1141312e-02
4.9794795e-02
6.5885939e-02
7.6605167e-02
7.8045477e-02
6.6099487e-02
3.9622675e-02
2.0573434e-03
-3.9615674e-02
-7.7281909e-02
-1.0525101e-01
-1.2161343e-01
-1.2666583e-01
-1.2044010e-01
-1.0225539e-01
-7.1056906e-02
-2.5882323e-02
3.3232672e-02
1.0323331e-01
1.7183337e-01
2.1750783e-01
2.2221125e-01
1.8374180e-01
1.1443782e-01
3.4786875e-02
-3.5669746e-02
-8.8716088e-02
-1.2267795e-01
-1.3664938e-01
-1.3202337e-01
-1.1263530e-01
-8.3828562e-02
-5.0930024e-02
-1.7817984e-02
1.3896625e-02
4.1742857e-02
6.0130788e-02
6.3828413e-02
5.2539510e-02
3.1947657e-02
1.0903341e-02
-2.8858570e-03
-6.0091255e-03
1.9242518e-03
1.9284570e-02
4.0993844e-02
5.9467812e-02
6.6747897e-02
5.8128049e-02
3.4860123e-02
2.5943016e-03
-3.2135402e-02
-6.4281346e-02
-9.0346236e-02
-1.0875590e-01
-1.1999260e-01
-1.2494564e-01
-1.2386261e-01
-1.1616648e-01
-1.0035220e-01
-7.5233629e-02
-4.1150967e-02
5.4408017e-04
4.7614967e-02
9.5703447e-02
1.3744838e-01
1.6374390e-01
1.6570492e-01
1.3919180e-01
9.0592289e-02
3.4674988e-02
-1.3889665e-02
-4.6692554e-02
-6.1596455e-02
-6.0250011e-02
-4.6908776e-02
-2.8519473e-02
-1.4144670e-02
-9.9711552e-03
-1.6123356e-02
-2.7923588e-02
-3.7737537e-02
-3.9609255e-02
-3.1757048e-02
-1.4878247e-02
8.1068672e-03
3.2715192e-02
5.5956724e-02
7.6391771e-02
9.1420711e-02
9.7282225e-02
8.9846235e-02
6.6934364e-02
3.2108825e-02
-7.1879435e-03
-4.5073584e-02
-7.8954212e-02
-1.0746176e-01
-1.2798751e-01
-1.3643308e-01
-1.2909302e-01
-1.0400568e-01
-6.1506809e-02
-3.1918942e-03
6.6814690e-02
1.3836602e-01
1.9803518e-01
2.3428008e-01
2.4091668e-01
2.1917679e-01
1.7525376e-01
1.1518802e-01
4.4328937e-02
-2.9956064e-02
-9.9018204e-02
-1.5465727e-01
-1.9100891e-01
-2.0708371e-01
-2.0578222e-01
-1.9054207e-01
-1.6486276e-01
-1.3260538e-01
-9.7308795e-02
-6.3052725e-02
-3.3574939e-02
-1.1028946e-02
3.6957049e-03
1.1439325e-02
1.5906482e-02
2.3357460e-02
3.8935245e-02
6.4882914e-02
9.9044113e-02
1.3266042e-01
1.5375247e-01
1.5318604e-01
1.2992995e-01
9.1876703e-02
5.0371195e-02
1.3323572e-02
-1.7911877e-02
-4.6261558e-02
-7.3745337e-02
-9.8380944e-02
-1.1466089e-01
-1.1685027e-01
-1.0351966e-01
-7.6131885e-02
-3.6252352e-02
1.3109792e-02
6.5734474e-02
1.1007379e-01
1.3238315e-01
1.2481965e-01
9.0785738e-02
4.2929048e-02
-4.5331131e-03
-4.1480588e-02
-6.3816989e-02
-7.1613342e-02
-6.6599225e-02
-5.1332715e-02
-2.9085245e-02
-4.6813556e-03
1.5577896e-02
2.5553274e-02
2.3302904e-02
1.2234620e-02
-1.3026895e-03
-1.0686527e-02
-1.2861512e-02
-7.7636684e-03
3.7108333e-03
1.9456397e-02
3.6598166e-02
5.1341564e-02
5.9459660e-02
5.8399820e-02
4.8629102e-02
3.2773242e-02
1.4842183e-02
-4.6050928e-04
-9.5886787e-03
-1.0735195e-02
-4.4989975e-03
5.4022688e-03
1.4637435e-02
2.1022503e-02
2.4881124e-02
2.7672342e-02
2.9359381e-02
2.7808925e-02
2.0754440e-02
8.2328286e-03
-5.6984755e-03
-1.6535928e-02
-2.3531262e-02
-2.8800447e-02
-3.6244339e-02
-4.9213786e-02
-6.7899483e-02
-8.9461008e-02
-1.0994053e-01
-1.2847888e-01
-1.4392201e-01
-1.5070454e-01
-1.4550033e-01
-1.2897893e-01
-1.0289152e-01
-6.9012046e-02
-2.9841129e-02
9.2385225e-03
4.2017998e-02
6.4718675e-02
7.7938764e-02
8.6151478e-02
9.4194632e-02
1.0501609e-01
1.1845099e-01
1.3159316e-01
1.3906724e-01
1.3314451e-01
1.0830370e-01
6.4476042e-02
6.9332518e-03
-5.4557736e-02
-1.0914604e-01
-1.4904114e-01
-1.7101031e-01
-1.7517150e-01
-1.6330781e-01
-1.3747990e-01
-9.9156719e-02
-4.9114826e-02
1.1337841e-02
7.9311035e-02
1.5018308e-01
2.1652649e-01
2.6803832e-01
2.9297585e-01
2.8122567e-01
2.2987456e-01
1.4853270e-01
5.6544615e-02
-2.6878860e-02
-8.9592048e-02
-1.2887070e-01
-1.4808419e-01
-1.5273653e-01
-1.4848671e-01
-1.3850990e-01
-1.2346553e-01
-1.0286343e-01
-7.7744391e-02
-5.1759253e-02
-3.0022679e-02
-1.6917293e-02
-1.2547058e-02
-1.2759880e-02
-1.1616692e-02
-4.3543342e-03
1.1703815e-02
3.7060317e-02
6.6655104e-02
8.8683763e-02
8.9979944e-02
6.6339967e-02
2.7319036e-02
-1.0890038e-02
-3.5255137e-02
-4.0544213e-02
-2.7788395e-02
-2.3438069e-03
2.6300798e-02
4.7853027e-02
5.5988694e-02
5.0242356e-02
3.4053161e-02
1.1538565e-02
-1.4550055e-02
-4.2057636e-02
-6.7299435e-02
-8.5711967e-02
-9.3748702e-02
-8.9790392e-02
-7.4289368e-02
-4.9175183e-02
-1.5816962e-02
2.5660951e-02
7.4188627e-02
1.2638435e-01
1.7491635e-01
2.0765268e-01
2.1202504e-01
1.8203540e-01
1.2239412e-01
4.7170560e-02
-2.6843266e-02
-8.7204909e-02
-1.2770240e-01
-1.4739270e-01
-1.4930147e-01
-1.3879139e-01
-1.2276916e-01
-1.0741856e-01
-9.5356778e-02
-8.5062077e-02
-7.3035508e-02
-5.7516197e-02
-3.9283487e-02
-2.0366191e-02
-4.0567122e-03
7.2441709e-03
1.4931748e-02
2.2299977e-02
3.2528276e-02
4.8167051e-02
7.0198016e-02
9.7690744e-02
1.2687159e-01
1.4901098e-01
1.5139612e-01
1.2566194e-01
7.3935664e-02
7.7008646e-03
-5.7426742e-02
-1.0951146e-01
-1.4318692e-01
-1.5760914e-01
-1.5436215e-01
-1.3550697e-01
-1.0225678e-01
-5.5429102e-02
3.3100190e-03
6.9560450e-02
1.3321847e-01
1.7996053e-01
1.9764789e-01
1.8341413e-01
1.4523489e-01
9.5785836e-02
4.6486359e-02
4.3193368e-03
-2.8677516e-02
-5.4013830e-02
-7.4560897e-02
-9.2686374e-02
-1.0917617e-01
-1.2223233e-01
-1.2945296e-01
-1.2999903e-01
-1.2391508e-01
-1.1147853e-01
-9.3339867e-02
-7.0019599e-02
-4.1391838e-02
-8.1719479e-03
2.7163843e-02
6.0406257e-02
8.5956792e-02
1.0079581e-01
1.0769651e-01
1.1299793e-01
1.2117987e-01
1.3034713e-01
1.3249181e-01
1.1925541e-01
8.9948497e-02
5.4637444e-02
2.6947571e-02
1.4570618e-02
1.8397680e-02
3.3714927e-02
4.9316864e-02
5.1980694e-02
3.3990345e-02
-1.0316463e-03
-4.0620528e-02
-7.4463291e-02
-9.8091003e-02
-1.1123427e-01
-1.1703862e-01
-1.2007184e-01
-1.2690645e-01
-1.3800292e-01
-1.4433133e-01
-1.4163606e-01
-1.3246699e-01
-1.1978007e-01
-1.0599829e-01
-9.1990310e-02
-7.7354674e-02
-6.1415235e-02
-4.3034323e-02
-2.0812810e-02
5.2521923e-03
3.4600100e-02
6.7662034e-02
1.0455492e-01
1.4499570e-01
1.8672832e-01
2.2147390e-01
2.3696349e-01
2.2263158e-01
1.7589333e-01
1.0603519e-01
2.9597829e-02
-3.8025044e-02
-8.8227747e-02
-1.1921496e-01
-1.3277325e-01
-1.3149913e-01
-1.1680720e-01
-8.9082322e-02
-4.9859424e-02
-1.7718966e-03
5.1595616e-02
1.0260305e-01
1.3985545e-01
1.5263669e-01
1.3685842e-01
9.8397165e-02
4.9043672e-02
2.9524655e-05
-4.2226324e-02
-7.5877123e-02
-1.0091162e-01
-1.1843802e-01
-1.2977770e-01
-1.3447416e-01
-1.3054138e-01
-1.1597289e-01
-8.9495987e-02
-5.1231625e-02
-3.4606287e-03
4.9541041e-02
1.0116321e-01
1.4123146e-01
1.5887598e-01
1.4846102e-01
1.1430501e-01
6.8948428e-02
2.5321317e-02
-8.5401516e-03
-3.0422070e-02
-4.0972885e-02
-4.2328212e-02
-3.8771592e-02
-3.4047323e-02
-2.9903124e-02
-2.6336909e-02
-2.1169963e-02
-1.2573296e-02
-2.6721338e-03
3.1481461e-03
-1.4861390e-03
-1.9696741e-02
-4.6705820e-02
-7.2331794e-02
-8.7184330e-02
-8.6395365e-02
-6.9656005e-02
-4.0388283e-02
-5.9711350e-03
2.3424398e-02
3.8687817e-02
3.8039701e-02
2.9262210e-02
2.2985723e-02
2.6333036e-02
4.1486372e-02
6.2430352e-02
7.5667472e-02
6.9668706e-02
4.3737002e-02
8.3309314e-03
-2.2888960e-02
-4.0583870e-02
-4.2264519e-02
-2.9460251e-02
-5.0189350e-03
2.6727146e-02
5.9879526e-02
8.5880030e-02
9.7054532e-02
9.1694599e-02
7.4331945e-02
5.2772951e-02
3.2605604e-02
1.5562207e-02
1.1771066e-03
-1.1658425e-02
-2.3402218e-02
-3.4938964e-02
-4.7555244e-02
-6.2494982e-02
-8.0743265e-02
-1.0076670e-01
-1.1820059e-01
-1.2828870e-01
-1.2719401e-01
-1.1271512e-01
-8.5930458e-02
-5.0349337e-02
-9.9315233e-03
3.1447861e-02
7.0099882e-02
1.0187800e-01
1.2095946e-01
1.2025006e-01
9.6353186e-02
5.2103506e-02
-3.6186176e-03
-5.6736049e-02
-9.5307086e-02
-1.1389112e-01
-1.1155061e-01
-9.0092847e-02
-5.3129922e-02
-5.5671717e-03
4.6509674e-02
9.6154511e-02
1.3725282e-01
1.6407708e-01
1.7048977e-01
1.5260947e-01
1.1236590e-01
5.8039416e-02
1.0581931e-03
-4.8051533e-02
-8.3449433e-02
-1.0375822e-01
-1.0982309e-01
-1.0377952e-01
-8.8016409e-02
-6.5459803e-02
-3.9641139e-02
-1.4528918e-02
6.4076212e-03
2.1631666e-02
3.2133764e-02
4.1280799e-02
5.2378356e-02
6.7519788e-02
8.6414372e-02
1.0432914e-01
1.1441682e-01
1.1130203e-01
9.3744746e-02
6.5526172e-02
3.1839615e-02
-3.9109820e-03
-4.0145038e-02
-7.5532183e-02
-1.0649391e-01
-1.2871519e-01
-1.4013927e-01
-1.4077375e-01
-1.3286898e-01
-1.1972372e-01
-1.0400713e-01
-8.7740059e-02
-7.2392149e-02
-6.0779130e-02
-5.0216796e-02
-3.0145097e-02
3.5473379e-03
4.7987692e-02
9.8080813e-02
1.4164348e-01
1.6335392e-01
1.5442538e-01
1.1855791e-01
7.0554247e-02
2.6232462e-02
-5.6602648e-03
-2.3936781e-02
-3.1673943e-02
-3.3291167e-02
-3.3073984e-02
-3.3777685e-02
-3.6006217e-02
-3.8310698e-02
-3.8186879e-02
-3.3845160e-02
-2.4756123e-02
-1.1332964e-02
5.6947269e-03
2.5990544e-02
4.8537118e-02
7.0585122e-02
8.7604274e-02
9.3898742e-02
8.5821892e-02
6.4945447e-02
3.6543590e-02
5.7223897e-03
-2.3911271e-02
-4.9935806e-02
-7.0874206e-02
-8.5528589e-02
-9.3242902e-02
-9.4181043e-02
-8.8077601e-02
-7.4330072e-02
-5.3258623e-02
-2.7194091e-02
-1.6312156e-03
1.5535302e-02
1.7608888e-02
4.1142850e-03
-1.9918585e-02
-4.7105226e-02
-6.8452888e-02
-7.7468440e-02
-7.1842498e-02
-5.2012316e-02
-2.0543476e-02
1.8975798e-02
6.3331495e-02
1.0949701e-01
1.5201138e-01
1.8204197e-01
1.8824908e-01
1.6276949e-01
1.0961768e-01
4.4439225e-02
-1.3838286e-02
-5.2152899e-02
-6.6892549e-02
-6.1226556e-02
-4.0215935e-02
-1.1158795e-02
1.4475865e-02
2.6336904e-02
1.9435416e-02
-4.8553849e-03
-3.8491964e-02
-7.1987201e-02
-1.0052895e-01
-1.2270174e-01
-1.3661188e-01
-1.3890205e-01
-1.2532251e-01
-9.3521028e-02
-4.3725836e-02
2.2083303e-02
9.9973099e-02
1.8278749e-01
2.5841380e-01
3.1160124e-01
3.2639714e-01
2.9254494e-01
2.1418140e-01
1.0943005e-01
1.7010797e-03
-9.0513099e-02
-1.5916105e-01
-2.0510693e-01
-2.3315974e-01
-2.4791211e-01
-2.5157148e-01
-2.4352110e-01
-2.2183327e-01
-1.8583899e-01
-1.3742429e-01
-8.1510139e-02
-2.4996299e-02
2.8131270e-02
7.9248053e-02
1.3107257e-01
1.8226949e-01
2.2337820e-01
2.3828911e-01
2.1471461e-01
1.5487266e-01
7.6787886e-02
3.1315088e-03
-5.2052964e-02
-8.4531784e-02
-9.6639051e-02
-9.5041239e-02
-8.6477378e-02
-7.5503904e-02
-6.2801996e-02
-4.5675858e-02
-2.2528112e-02
6.0259110e-03
3.7807277e-02
6.9589403e-02
9.8709774e-02
1.2135878e-01
1.3046932e-01
1.1797933e-01
8.0188704e-02
2.1648318e-02
-4.5285790e-02
-1.0583937e-01
-1.4980517e-01
-1.7285267e-01
-1.7468455e-01
-1.5837853e-01
-1.2944164e-01
-9.3682486e-02
-5.5771393e-02
-1.9087603e-02
1.4010754e-02
4.0748647e-02
5.8508791e-02
6.7381292e-02
6.9367509e-02
6.4633716e-02
5.2214613e-02
3.4821365e-02
1.9846341e-02
1.6024210e-02
2.8742287e-02
5.8574402e-02
1.0342562e-01
1.5892631e-01
2.1351821e-01
2.4686291e-01
2.4199497e-01
1.9718820e-01
1.2614275e-01
4.9187858e-02
-1.8749620e-02
-7.1546196e-02
-1.0899269e-01
-1.3467081e-01
-1.5295732e-01
-1.6678516e-01
-1.7688434e-01
-1.8147106e-01
-1.7705689e-01
-1.6118339e-01
-1.3487070e-01
-1.0260906e-01
-7.1285539e-02
-4.7648640e-02
-3.5770071e-02
-3.6111141e-02
-4.5599723e-02
-6.0845487e-02
-7.4195620e-02
-7.4137159e-02
-5.8073463e-02
-2.8625933e-02
1.3236833e-02
6.5550410e-02
1.2235809e-01
1.6985677e-01
1.9267559e-01
1.8478749e-01
1.5313572e-01
1.1177588e-01
7.1991899e-02
3.9052789e-02
1.2829944e-02
-8.9280082e-03
-2.7053708e-02
-4.0848437e-02
-4.8124677e-02
-4.7247201e-02
-4.0169513e-02
-3.2413734e-02
-3.0362493e-02
-3.7701168e-02
-5.0565159e-02
-5.9427950e-02
-5.7487005e-02
-4.1753687e-02
-1.1662775e-02
2.9892089e-02
7.4432483e-02
1.0654331e-01
1.1359804e-01
9.6571651e-02
6.7084364e-02
3.7673094e-02
1.4207471e-02
-4.8995052e-03
-2.3400831e-02
-4.1862366e-02
-5.5894937e-02
-5.9831777e-02
-5.1909512e-02
-3.3499545e-02
-9.1720197e-03
1.1672408e-02
2.0405935e-02
1.3363431e-02
-6.6211062e-03
-2.9713795e-02
-4.5534371e-02
-4.8396334e-02
-3.7330302e-02
-1.4494238e-02
1.6253913e-02
5.0487451e-02
8.2351786e-02
1.0165707e-01
9.7741318e-02
6.6659889e-02
1.4818225e-02
-4.2699445e-02
-9.1302904e-02
-1.2365870e-01
-1.3875556e-01
-1.3850430e-01
-1.2509482e-01
-1.0007060e-01
-6.4770802e-02
-2.1119003e-02
2.7746208e-02
7.7386687e-02
1.2271143e-01
1.5793351e-01
1.7717936e-01
1.7571885e-01
1.5119898e-01
1.0596444e-01
4.8479169e-02
-9.6032113e-03
-5.8327734e-02
-9.1400446e-02
-1.0699304e-01
-1.0694132e-01
-9.5193281e-02
-7.6815497e-02
-5.5401527e-02
-3.1978433e-02
-6.9884004e-03
1.7402304e-02
3.7194322e-02
4.8813455e-02
5.2630810e-02
5.3754655e-02
5.7435606e-02
6.4761763e-02
7.0857957e-02
6.5717999e-02
4.2342056e-02
3.7580914e-03
-3.9625464e-02
-7.6246199e-02
-9.9502102e-02
-1.0924126e-01
-1.0931006e-01
-1.0480189e-01
-9.8335037e-02
-8.9578939e-02
-7.6984160e-02
-5.9156971e-02
-3.6356429e-02
-9.5371791e-03
2.0821531e-02
5.4189921e-02
8.9170082e-02
1.2110070e-01
1.4148445e-01
1.4244712e-01
1.2342223e-01
9.3053141e-02
6.3405090e-02
4.3095520e-02
3.3636893e-02
3.0595648e-02
2.6144135e-02
1.2074471e-02
-1.3434834e-02
-4.4378365e-02
-7.2294066e-02
-9.0038739e-02
-9.4965907e-02
-9.0454589e-02
-8.2709477e-02
-7.6024254e-02
-7.0359810e-02
-6.2107517e-02
-4.7372757e-02
-2.5579108e-02
-4.5865306e-05
2.4676663e-02
4.5691351e-02
6.2364468e-02
7.4430151e-02
7.8807789e-02
6.8909573e-02
4.0376354e-02
-2.7214782e-03
-4.9251410e-02
-8.6693401e-02
-1.0636387e-01
-1.0587382e-01
-8.7578528e-02
-5.6888630e-02
-2.0887155e-02
1.5215268e-02
5.0508993e-02
8.7104780e-02
1.2605761e-01
1.6336728e-01
1.8961997e-01
1.9437476e-01
1.7353627e-01
1.3275361e-01
8.2350741e-02
3.0472518e-02
-1.9365803e-02
-6.6683088e-02
-1.1052188e-01
-1.4662460e-01
-1.6857129e-01
-1.7222410e-01
-1.5731360e-01
-1.2661546e-01
-8.4439258e-02
-3.6727970e-02
6.6613281e-03
3.4554254e-02
4.0062077e-02
2.3949845e-02
-8.4441741e-03
-4.5785631e-02
-7.1855625e-02
-8.0002871e-02
-7.1687484e-02
-4.9582504e-02
-2.0823249e-02
4.8979917e-03
1.9628365e-02
2.1601261e-02
1.7171360e-02
1.6029687e-02
2.5760580e-02
4.8556647e-02
8.0197744e-02
1.1052896e-01
1.2584829e-01
1.1690520e-01
8.6134564e-02
4.7164032e-02
1.6740744e-02
4.9864418e-03
1.4449872e-02
4.3136049e-02
8.3050124e-02
1.1750293e-01
1.2587797e-01
9.8776308e-02
4.4782081e-02
-1.7834295e-02
-7.2202890e-02
-1.1031696e-01
-1.3168284e-01
-1.3853353e-01
-1.3357886e-01
-1.1901695e-01
-9.7125409e-02
-7.2101122e-02
-5.0197126e-02
-3.5295830e-02
-2.6704949e-02
-2.0555254e-02
-1.1562969e-02
3.3995966e-03
2.4557715e-02
4.9348257e-02
7.1158734e-02
8.2018291e-02
7.6818096e-02
5.5706499e-02
2.4450048e-02
-8.7194735e-03
-3.7388105e-02
-5.8139935e-02
-6.9525665e-02
-7.1621943e-02
-6.5987602e-02
-5.5064905e-02
-4.0820836e-02
-2.3611091e-02
-1.8688237e-03
2.6680400e-02
6.2322722e-02
1.0213714e-01
1.3916390e-01
1.6112089e-01
1.5529622e-01
1.1905456e-01
6.2464949e-02
1.5400258e-03
-4.9368038e-02
-8.3092585e-02
-9.8808923e-02
-9.9267920e-02
-9.0019871e-02
-7.6548429e-02
-6.1086444e-02
-4.2641810e-02
-2.0627710e-02
1.8457781e-03
1.6979237e-02
1.6533807e-02
-6.2761847e-04
-2.6917427e-02
-5.1076297e-02
-6.4629356e-02
-6.4573456e-02
-5.2240854e-02
-3.0641062e-02
-1.6031890e-03
3.4800159e-02
7.8075645e-02
1.2525695e-01
1.6835564e-01
1.9327973e-01
1.8671425e-01
1.4437980e-01
7.4628958e-02
-4.6990549e-03
-7.6305588e-02
-1.2997205e-01
-1.6267784e-01
-1.7580284e-01
-1.7209397e-01
-1.5400861e-01
-1.2350031e-01
-8.3175846e-02
-3.6739966e-02
1.1735952e-02
5.8128071e-02
9.7567757e-02
1.2438353e-01
1.3221193e-01
1.1684254e-01
8.1726116e-02
3.7389950e-02
-5.0862771e-03
-3.8295792e-02
-5.8680321e-02
-6.5339993e-02
-5.7698213e-02
-3.4875789e-02
2.9980009e-03
5.3571546e-02
1.0984638e-01
1.5755856e-01
1.7845230e-01
1.6271201e-01
1.1576444e-01
5.2484285e-02
-1.1652597e-02
-6.7375508e-02
-1.1143473e-01
-1.4329452e-01
-1.6374996e-01
-1.7380662e-01
-1.7468242e-01
-1.6750192e-01
-1.5256522e-01
-1.3009009e-01
-1.0102325e-01
-6.7169077e-02
-3.1671028e-02
1.0814859e-03
2.6503618e-02
4.1836410e-02
4.8515962e-02
5.1982367e-02
5.9363941e-02
7.6520927e-02
1.0619089e-01
1.4710068e-01
1.9119343e-01
2.2210031e-01
2.2196319e-01
1.8502027e-01
1.2264757e-01
5.4991849e-02
-7.5703275e-04
-3.6659517e-02
-5.1921261e-02
-4.9535951e-02
-3.5176935e-02
-1.6395776e-02
-1.9953261e-03
1.5752451e-04
-1.2941923e-02
-3.7271886e-02
-6.5067481e-02
-8.9261854e-02
-1.0480674e-01
-1.0853743e-01
-9.9192830e-02
-7.9082402e-02
-5.4399404e-02
-3.3520842e-02
-2.4031998e-02
-2.8562957e-02
-4.3992647e-02
-6.4100250e-02
-8.3903526e-02
-9.8333139e-02
-1.0074401e-01
-8.9101969e-02
-6.5643473e-02
-3.5876950e-02
-1.0001526e-02
2.9841558e-03
-6.0023901e-04
-1.5575079e-02
-2.7402746e-02
-2.3620751e-02
-1.2211483e-03
3.5479344e-02
7.8658646e-02
1.2151370e-01
1.6240372e-01
2.0274454e-01
2.3776081e-01
2.5266601e-01
2.2911334e-01
1.6115638e-01
6.5659665e-02
-2.9389413e-02
-1.0256641e-01
-1.4578775e-01
-1.6120421e-01
-1.5493176e-01
-1.3370195e-01
-1.0340049e-01
-6.7441950e-02
-2.7362906e-02
1.5375996e-02
5.9153410e-02
1.0019571e-01
1.3081321e-01
1.4270423e-01
1.3053628e-01
9.4148059e-02
4.1444984e-02
-1.3361422e-02
-5.6955254e-02
-8.1624598e-02
-8.6931453e-02
-8.2013773e-02
-8.1610811e-02
-9.4649447e-02
-1.1684410e-01
-1.3494357e-01
-1.3805102e-01
-1.2252898e-01
-8.9042201e-02
-3.9710141e-02
1.8591379e-02
7.1965343e-02
1.0745407e-01
1.1898278e-01
1.0828842e-01
8.4443087e-02
5.7264633e-02
3.0289220e-02
2.5134669e-03
-2.5647006e-02
-5.0442773e-02
-6.4660857e-02
-6.1242955e-02
-3.7666856e-02
5.7603654e-03
6.5265698e-02
1.2738542e-01
1.6926459e-01
1.7193307e-01
1.3279359e-01
6.5792219e-02
-8.5038558e-03
-7.4116092e-02
-1.2265332e-01
-1.5128004e-01
-1.6062323e-01
-1.5282159e-01
-1.2981102e-01
-9.2849700e-02
-4.3201969e-02
1.5854004e-02
7.4481116e-02
1.1647601e-01
1.2813572e-01
1.0841800e-01
6.9638790e-02
2.8532027e-02
-1.8670450e-03
-1.6165249e-02
-1.5019773e-02
-2.1277160e-03
1.6621083e-02
3.6435144e-02
5.6111503e-02
7.4682210e-02
8.6334340e-02
8.1234278e-02
5.1627009e-02
2.6347768e-04
-5.7867170e-02
-1.0617821e-01
-1.3465299e-01
-1.4075948e-01
-1.2794319e-01
-1.0259512e-01
-7.3039359e-02
-4.5920822e-02
-2.1547289e-02
3.1125480e-03
3.0829926e-02
6.3595506e-02
1.0091717e-01
1.3722987e-01
1.6030024e-01
1.5643477e-01
1.2071694e-01
6.1880953e-02
-3.5067968e-03
-6.1598922e-02
-1.0526049e-01
-1.3208698e-01
-1.4351993e-01
-1.4456537e-01
-1.4088680e-01
-1.3488629e-01
-1.2493121e-01
-1.0729503e-01
-7.8404687e-02
-3.7180259e-02
1.5249973e-02
7.7146607e-02
1.4540144e-01
2.1224685e-01
2.6178712e-01
2.7466417e-01
2.4046880e-01
1.6670105e-01
7.5393993e-02
-1.0040555e-02
-7.4866635e-02
-1.1426713e-01
-1.3012188e-01
-1.2884666e-01
-1.1901729e-01
-1.0722657e-01
-9.5371862e-02
-8.1167508e-02
-6.1529697e-02
-3.5973143e-02
-8.2840121e-03
1.4769104e-02
2.7100231e-02
2.8016231e-02
2.3546042e-02
2.1662974e-02
2.7778323e-02
4.2922734e-02
6.3909009e-02
8.2660325e-02
8.6864545e-02
6.6892435e-02
2.2249356e-02
-3.7045017e-02
-9.4616667e-02
-1.3596724e-01
-1.5468647e-01
-1.5318040e-01
-1.3837924e-01
-1.1568132e-01
-8.5412160e-02
-4.4624891e-02
8.7898753e-03
7.2470617e-02
1.3602941e-01
1.8183510e-01
1.9363462e-01
1.6765925e-01
1.1310593e-01
4.7888347e-02
-9.0276835e-03
-4.9335600e-02
-7.1882469e-02
-7.6450420e-02
-6.4252292e-02
-3.8033541e-02
-3.6329664e-03
2.8978510e-02
4.8284545e-02
4.8911852e-02
3.4672927e-02
1.4262283e-02
-4.0633986e-03
-1.6715793e-02
-2.4150345e-02
-2.8053790e-02
-3.0192313e-02
-3.2224564e-02
-3.4834639e-02
-3.7471774e-02
-3.9223938e-02
-3.8545496e-02
-3.4635502e-02
-2.8980097e-02
-2.4164672e-02
-2.1658689e-02
-2.0586787e-02
-1.7320742e-02
-7.1017076e-03
1.2473221e-02
4.2295295e-02
8.1446393e-02
1.2318747e-01
1.5585002e-01
1.6672602e-01
1.4986894e-01
1.1225150e-01
6.7300726e-02
2.5516437e-02
-9.2052145e-03
-3.7876989e-02
-6.1879424e-02
-8.0889168e-02
-9.3054296e-02
-9.6453851e-02
-9.1446210e-02
-8.0879326e-02
-6.8884941e-02
-5.9700975e-02
-5.5127492e-02
-5.3955922e-02
-5.3492329e-02
-5.0113524e-02
-4.1321100e-02
-2.6561268e-02
-5.9052080e-03
1.9730551e-02
4.8600638e-02
7.8439561e-02
1.0447559e-01
1.1859538e-01
1.1374438e-01
8.8197531e-02
4.7199651e-02
9.7300739e-04
-4.1401887e-02
-7.4626978e-02
-9.7428947e-02
-1.1154202e-01
-1.1820382e-01
-1.1773262e-01
-1.1011302e-01
-9.4852158e-02
-7.1965402e-02
-4.1815434e-02
-4.2106254e-03
4.1062108e-02
9.2984420e-02
1.4877148e-01
2.0050038e-01
2.3272758e-01
2.2982426e-01
1.8634728e-01
1.1263865e-01
3.0173803e-02
-4.1099288e-02
-9.0160588e-02
-1.1480770e-01
-1.1738766e-01
-1.0187131e-01
-7.5748185e-02
-5.1531393e-02
-4.2331567e-02
-5.1504046e-02
-6.9608127e-02
-8.2929860e-02
-8.1809990e-02
-6.3882866e-02
-3.2092451e-02
6.8469757e-03
4.3474605e-02
7.1532809e-02
9.1853488e-02
1.0856237e-01
1.2342031e-01
1.3313790e-01
1.2938995e-01
1.0454110e-01
5.9211313e-02
2.6764675e-03
-5.3075821e-02
-9.9412175e-02
-1.3238270e-01
-1.5100586e-01
-1.5573244e-01
-1.4698100e-01
-1.2481611e-01
-9.0709843e-02
-4.7452665e-02
1.9704603e-03
5.3014541e-02
9.9030058e-02
1.3200101e-01
1.4423788e-01
1.3161010e-01
9.7102191e-02
4.9667369e-02
-1.7521418e-04
-4.2391567e-02
-7.0466468e-02
-8.2219759e-02
-7.8508644e-02
-6.3078253e-02
-4.1109158e-02
-1.7197504e-02
6.7780284e-03
3.1163125e-02
5.6032260e-02
7.8779973e-02
9.3615921e-02
9.5225604e-02
8.2962025e-02
6.1770023e-02
3.8329128e-02
1.7041490e-02
-1.3712674e-03
-1.9794954e-02
-4.1012220e-02
-6.3864459e-02
-8.3853449e-02
-9.6217280e-02
-9.8769449e-02
-9.2784427e-02
-8.1952678e-02
-7.1118453e-02
-6.3206703e-02
-5.6573763e-02
-4.6454299e-02
-2.7976608e-02
1.3033824e-03
4.0883458e-02
8.7638235e-02
1.3626127e-01
1.7929873e-01
2.0771182e-01
2.1548649e-01
2.0264500e-01
1.7441084e-01
1.3938227e-01
1.0601975e-01
7.8079459e-02
5.2183272e-02
2.0325476e-02
-2.4073419e-02
-7.9757092e-02
-1.3773930e-01
-1.8814965e-01
-2.2479891e-01
-2.4601368e-01
-2.5380306e-01
-2.5071718e-01
-2.3723943e-01
-2.1244462e-01
-1.7658905e-01
-1.3219904e-01
-8.3840900e-02
-3.8257787e-02
-1.3699075e-03
2.5718895e-02
4.6362725e-02
6.5204063e-02
8.4605416e-02
1.0303317e-01
1.1617779e-01
1.1862027e-01
1.0738663e-01
8.5359713e-02
5.9493406e-02
3.7340402e-02
2.4171811e-02
2.1448637e-02
2.7457253e-02
3.7116906e-02
4.2979362e-02
3.9260169e-02
2.5874077e-02
9.4721646e-03
-2.6598266e-04
4.1088184e-03
2.4826436e-02
5.6770076e-02
8.5207034e-02
9.1392015e-02
6.7411767e-02
2.2282803e-02
-2.6278252e-02
-6.3417575e-02
-8.3348872e-02
-8.6430793e-02
-7.5600691e-02
-5.5785031e-02
-3.1712755e-02
-8.2981514e-03
8.2491117e-03
1.3232355e-02
6.7903526e-03
-6.0179862e-03
-1.7288230e-02
-1.9127563e-02
-7.9229760e-03
1.6559815e-02
5.1532458e-02
8.6512738e-02
1.0598531e-01
9.7453441e-02
6.0119692e-02
8.0671922e-03
-4.0225866e-02
-7.3440208e-02
-8.9694925e-02
-9.3835787e-02
-9.2664872e-02
-9.0686853e-02
-8.7355939e-02
-7.7509436e-02
-5.6283340e-02
-2.1862062e-02
2.3487349e-02
7.1628937e-02
1.1045159e-01
1.2913321e-01
1.2572767e-01
1.0894824e-01
9.0035002e-02
7.5568770e-02
6.5416765e-02
5.3962786e-02
3.4958961e-02
6.9087899e-03
-2.5574646e-02
-5.4542168e-02
-7.3375735e-02
-7.9021663e-02
-7.1496888e-02
-5.3536777e-02
-3.1653484e-02
-1.7253028e-02
-2.0581466e-02
-4.1946717e-02
-7.1625974e-02
-9.6893951e-02
-1.0946600e-01
-1.0799025e-01
-9.5723560e-02
-7.7371757e-02
-5.5297635e-02
-2.7769229e-02
7.7124174e-03
5.0595097e-02
9.3689930e-02
1.2181873e-01
1.2156741e-01
9.3571314e-02
5.2840047e-02
1.7999879e-02
2.6772701e-04
2.1303148e-03
2.0192655e-02
4.7310879e-02
7.5106714e-02
9.4388468e-02
9.6528213e-02
7.7554494e-02
4.1661183e-02
-4.1418654e-04
-3.6506256e-02
-5.7634475e-02
-6.1212457e-02
-4.8206175e-02
-2.0508834e-02
1.6868637e-02
5.3937114e-02
7.6158040e-02
7.3307631e-02
4.8669327e-02
1.5719409e-02
-1.1727375e-02
-2.7150927e-02
-3.1787762e-02
-3.0750636e-02
-2.9979186e-02
-3.3132360e-02
-3.9583136e-02
-4.5605902e-02
-4.7223408e-02
-4.2927684e-02
-3.4918535e-02
-2.8114380e-02
-2.7857199e-02
-3.6717950e-02
-5.2627660e-02
-6.9675476e-02
-8.0876760e-02
-8.2089983e-02
-7.3356799e-02
-5.8043858e-02
-4.2063182e-02
-3.0105163e-02
-2.1345864e-02
-1.1087477e-02
6.2432574e-03
3.5576270e-02
7.8442224e-02
1.3116031e-01
1.8351339e-01
2.1934720e-01
2.2455514e-01
1.9769380e-01
1.5002774e-01
9.6261044e-02
4.6862885e-02
5.2336426e-03
-2.9834046e-02
-5.9742544e-02
-8.3591957e-02
-9.8928649e-02
-1.0420014e-01
-1.0013154e-01
-8.9262345e-02
-7.3714663e-02
-5.4917038e-02
-3.4679427e-02
-1.5733563e-02
-1.8798948e-03
4.4294208e-03
3.1367313e-03
-4.4705418e-03
-1.6328639e-02
-3.2649953e-02
-5.2521747e-02
-7.0253587e-02
-8.2460645e-02
-8.8950448e-02
-8.9418381e-02
-8.4175718e-02
-7.4677960e-02
-6.4127141e-02
-5.6567489e-02
-5.3951409e-02
-5.3809938e-02
-5.0760767e-02
-3.9811511e-02
-1.8035021e-02
1.4439432e-02
5.6059714e-02
1.0487293e-01
1.5681265e-01
2.0510307e-01
2.3806335e-01
2.4118068e-01
2.0642634e-01
1.3940945e-01
5.8128228e-02
-1.6873132e-02
-7.1566561e-02
-1.0123709e-01
-1.0829572e-01
-9.8009280e-02
-7.6543689e-02
-5.0216441e-02
-2.3925321e-02
-9.2015171e-04
1.4960879e-02
1.9960347e-02
1.2565219e-02
-4.9389708e-03
-2.5068714e-02
-3.9552763e-02
-4.3771626e-02
-3.7747562e-02
-2.6284167e-02
-1.5517012e-02
-9.3781163e-03
-8.6975049e-03
-1.1549760e-02
-1.4605310e-02
-1.5449456e-02
-1.3975385e-02
-1.1368418e-02
-8.9058500e-03
-7.0445341e-03
-3.8842707e-03
4.0071836e-03
1.8721383e-02
4.1432927e-02
7.1932566e-02
1.0566775e-01
1.3389166e-01
1.4517965e-01
1.3048077e-01
8.9959073e-02
3.3967243e-02
-2.2632331e-02
-6.7864726e-02
-9.5992384e-02
-1.0785901e-01
-1.0774581e-01
-1.0059354e-01
-9.1435886e-02
-8.2057650e-02
-7.0982140e-02
-5.7169379e-02
-4.1617646e-02
-2.7125238e-02
-1.6644341e-02
-9.6631036e-03
-1.2183464e-03
1.3261817e-02
3.6135449e-02
6.6016426e-02
9.3807426e-02
1.0650765e-01
9.4872925e-02
6.0465578e-02
1.6629749e-02
-2.1516971e-02
-4.5238125e-02
-5.3129390e-02
-4.8931248e-02
-3.8453770e-02
-2.6756402e-02
-1.4864332e-02
2.6097438e-04
2.1672177e-02
5.0010062e-02
8.0906214e-02
1.0238263e-01
1.0110177e-01
7.2635191e-02
2.6047177e-02
-2.1833737e-02
-5.8057508e-02
-7.7670812e-02
-8.1803732e-02
-7.4972887e-02
-6.2506794e-02
-4.9432915e-02
-3.7922682e-02
-2.5988031e-02
-1.0234667e-02
1.1664518e-02
3.9017637e-02
6.6784090e-02
8.7242619e-02
9.2100385e-02
7.7849985e-02
5.0333703e-02
2.0223765e-02
-2.8598967e-03
-1.3737331e-02
-1.3037972e-02
-6.4594762e-03
-2.8410814e-03
-1.0103710e-02
-3.1645093e-02
-6.3894703e-02
-9.8406953e-02
-1.2780953e-01
-1.4707998e-01
-1.5269720e-01
-1.4368617e-01
-1.2156983e-01
-8.9469136e-02
-5.0882181e-02
-7.5788475e-03
3.9935677e-02
9.0341796e-02
1.4070293e-01
1.8507532e-01
2.1450286e-01
2.1959279e-01
1.9547784e-01
1.4490545e-01
7.7847037e-02
9.2254290e-03
-4.7673022e-02
-8.5267872e-02
-1.0124670e-01
-9.7137116e-02
-7.6618511e-02
-4.5452700e-02
-1.1978189e-02
1.5158834e-02
3.2548681e-02
4.2683679e-02
4.8959086e-02
5.2131397e-02
5.0505149e-02
4.2564119e-02
2.9273557e-02
1.4057510e-02
2.3632702e-04
-9.8328243e-03
-1.4285383e-02
-1.2191642e-02
-3.9372395e-03
7.6464506e-03
1.6794871e-02
1.6839825e-02
5.6638039e-03
-1.2758260e-02
-3.2923807e-02
-5.0156658e-02
-6.2031751e-02
-6.8394668e-02
-7.1375588e-02
-7.6017107e-02
-8.7128132e-02
-1.0866072e-01
-1.3557985e-01
-1.5239078e-01
-1.5142988e-01
-1.3444326e-01
-1.0462675e-01
-6.6398017e-02
-2.3932087e-02
2.0039933e-02
6.3941924e-02
1.0602018e-01
1.4161294e-01
1.6217624e-01
1.6099215e-01
1.3964820e-01
1.0782874e-01
7.7077956e-02
5.4272509e-02
3.9254499e-02
2.8209246e-02
1.9834118e-02
1.6026539e-02
2.0066509e-02
3.5028709e-02
5.8778635e-02
8.1179445e-02
8.7530576e-02
6.7818037e-02
2.4481608e-02
-3.0145391e-02
-8.2221033e-02
-1.2266110e-01
-1.4818561e-01
-1.6004754e-01
-1.6200259e-01
-1.5689187e-01
-1.4561073e-01
-1.2730301e-01
-9.9824923e-02
-6.1879570e-02
-1.4766100e-02
3.5784911e-02
7.9717785e-02
1.0824810e-01
1.2058396e-01
1.2321098e-01
1.2423721e-01
1.3087098e-01
1.4598079e-01
1.6196068e-01
1.6209290e-01
1.3305888e-01
7.6087745e-02
5.9074770e-03
-5.9442256e-02
-1.0821599e-01
-1.3672207e-01
-1.4685518e-01
-1.4379136e-01
-1.3230028e-01
-1.1363203e-01
-8.5856572e-02
-4.7064877e-02
1.9713764e-03
5.6602290e-02
1.0752951e-01
1.4324700e-01
1.5453239e-01
1.3835082e-01
9.9637386e-02
4.8199544e-02
-5.8485337e-03
-5.4765015e-02
-9.4185759e-02
-1.2215590e-01
-1.3722594e-01
-1.3799048e-01
-1.2363903e-01
-9.3345068e-02
-4.7489836e-02
8.5506262e-03
6.2676818e-02
1.0025192e-01
1.1385812e-01
1.0804600e-01
9.3150949e-02
7.7241673e-02
6.2705097e-02
4.6310301e-02
2.3581978e-02
-5.6261389e-03
-3.6586999e-02
-6.2135386e-02
-7.5892633e-02
-7.4522648e-02
-5.7906555e-02
-3.0754480e-02
-4.2015295e-03
9.5039999e-03
6.9135779e-03
-5.2763607e-03
-1.7163194e-02
-2.0982415e-02
-1.3523152e-02
4.5495742e-03
2.9561003e-02
5.3720471e-02
6.6905388e-02
6.1987892e-02
3.8862469e-02
4.6947730e-03
-2.9964060e-02
-5.7443031e-02
-7.5222265e-02
-8.3797345e-02
-8.5144635e-02
-8.1818330e-02
-7.5749065e-02
-6.8114251e-02
-5.8153503e-02
-4.2035723e-02
-1.6130585e-02
2.1443626e-02
7.0790460e-02
1.2712494e-01
1.7851708e-01
2.0797619e-01
2.0152675e-01
1.5664173e-01
8.3251748e-02
-1.9871157e-03
-8.2238363e-02
-1.4559584e-01
-1.8669774e-01
-2.0469196e-01
-2.0201038e-01
-1.8212722e-01
-1.4764902e-01
-1.0063318e-01
-4.2799767e-02
2.3514253e-02
9.3437599e-02
1.5784807e-01
2.0510696e-01
2.2510671e-01
2.1453928e-01
1.8044123e-01
1.3601533e-01
9.3183703e-02
5.7819849e-02
3.0000702e-02
6.3684175e-03
-1.7576626e-02
-4.5076766e-02
-7.7703812e-02
-1.1388074e-01
-1.4791649e-01
-1.7236049e-01
-1.8067228e-01
-1.6936109e-01
-1.3855197e-01
-9.1507938e-02
-3.3795085e-02
2.8075914e-02
8.7549960e-02
1.3986148e-01
1.8258645e-01
2.1311904e-01
2.2750192e-01
2.2136416e-01
1.9231649e-01
1.4367435e-01
8.4290385e-02
2.4017920e-02
-3.0175617e-02
-7.5988895e-02
-1.1403967e-01
-1.4435564e-01
-1.6643621e-01
-1.8084800e-01
-1.8994512e-01
-1.9418745e-01
-1.9012457e-01
-1.7661740e-01
-1.5594801e-01
-1.3245217e-01
-1.1181982e-01
-9.6219921e-02
-8.4199733e-02
-7.2301520e-02
-5.5384733e-02
-3.0939658e-02
-8.1287587e-04
3.1186143e-02
6.1892132e-02
9.0607412e-02
1.1902126e-01
1.4708176e-01
1.6839343e-01
1.7284516e-01
1.5295237e-01
1.1102289e-01
5.9201540e-02
1.0768073e-02
-2.4063837e-02
-3.9992422e-02
-3.7244237e-02
-1.8697974e-02
1.1033247e-02
4.5599853e-02
7.8120817e-02
1.0321955e-01
1.1889651e-01
1.2696017e-01
1.3132025e-01
1.3390770e-01
1.3153922e-01
1.1632426e-01
8.0540503e-02
2.5250779e-02
-3.8054803e-02
-9.4875207e-02
-1.3473051e-01
-1.5482421e-01
-1.5858905e-01
-1.5206017e-01
-1.4033318e-01
-1.2578026e-01
-1.1015501e-01
-9.4779331e-02
-8.0325635e-02
-6.7523332e-02
-5.5435467e-02
-4.1860907e-02
-2.5096708e-02
-4.6463919e-03
1.7933962e-02
3.9012276e-02
5.4322533e-02
6.1083921e-02
5.7228595e-02
4.2122557e-02
1.9461289e-02
-4.2968850e-03
-2.1911445e-02
-2.7435143e-02
-1.8127423e-02
7.2627740e-03
4.8511393e-02
9.8514156e-02
1.3970469e-01
1.5280618e-01
1.2999735e-01
7.9700335e-02
2.0858352e-02
-2.9562609e-02
-6.3131850e-02
-7.8639790e-02
-7.9487824e-02
-7.0458035e-02
-5.5151535e-02
-3.5370391e-02
-1.2186956e-02
1.2778660e-02
3.7089825e-02
5.7949154e-02
7.2410827e-02
7.8071049e-02
7.3679214e-02
5.9914726e-02
4.0041678e-02
1.8236880e-02
-2.2541444e-03
-1.9562915e-02
-3.2581728e-02
-4.0740899e-02
-4.3989817e-02
-4.2847079e-02
-3.8771042e-02
-3.3882049e-02
-3.1033135e-02
-3.2689550e-02
-3.9244187e-02
-4.9167670e-02
-6.0263302e-02
-7.1029016e-02
-8.0264655e-02
-8.6028395e-02
-8.6282052e-02
-7.9559900e-02
-6.5504502e-02
-4.5189602e-02
-1.9388994e-02
1.2726342e-02
5.2364064e-02
9.8822568e-02
1.4785558e-01
1.8992866e-01
2.1154428e-01
2.0276782e-01
1.6296375e-01
1.0071651e-01
2.9428868e-02
-3.8403778e-02
-9.4097955e-02
-1.3374712e-01
-1.5708307e-01
-1.6503366e-01
-1.5882503e-01
-1.3994951e-01
-1.1043248e-01
-7.3772780e-02
-3.3961459e-02
6.8283847e-03
4.7955733e-02
8.7865990e-02
1.2168032e-01
1.4167838e-01
1.4122389e-01
1.1928027e-01
8.1164758e-02
3.5874787e-02
-7.0246752e-03
-4.1519469e-02
-6.5649294e-02
-7.9120841e-02
-8.2148545e-02
-7.5131736e-02
-6.0336052e-02
-4.2485652e-02
-2.6819161e-02
-1.6199339e-02
-9.9347959e-03
-5.3311859e-03
5.3632165e-04
9.4873354e-03
2.2572971e-02
4.1160764e-02
6.6823835e-02
9.9791733e-02
1.3687909e-01
1.6850431e-01
1.7913177e-01
1.5711597e-01
1.0387759e-01
3.3451976e-02
-3.5499764e-02
-8.9176014e-02
-1.2283365e-01
-1.3919964e-01
-1.4392997e-01
-1.4136458e-01
-1.3277886e-01
-1.1744435e-01
-9.4487685e-02
-6.5302960e-02
-3.3919725e-02
-6.5895700e-03
8.0449582e-03
4.0392477e-03
-1.9383577e-02
-5.0871508e-02
-7.0491507e-02
-7.1688134e-02
-5.8019706e-02
-3.2111704e-02
2.6817634e-03
4.2004916e-02
8.0497250e-02
1.1348554e-01
1.3736092e-01
1.4937305e-01
1.4751905e-01
1.3002144e-01
9.7434787e-02
5.5407570e-02
1.3551128e-02
-1.9039396e-02
-3.6573202e-02
-3.7466822e-02
-2.3435128e-02
-3.0082329e-04
2.0518612e-02
2.7627596e-02
1.5746758e-02
-1.1422426e-02
-4.3165494e-02
-6.9082113e-02
-8.3324645e-02
-8.4799227e-02
-7.5235450e-02
-5.7180932e-02
-3.2187442e-02
-1.2876640e-04
3.8208542e-02
7.8421625e-02
1.1126883e-01
1.2520869e-01
1.1382808e-01
8.1503247e-02
3.9339340e-02
-2.4567235e-03
-3.6850544e-02
-6.0641779e-02
-7.4100107e-02
-7.9036732e-02
-7.7835729e-02
-7.2666075e-02
-6.4617252e-02
-5.4563710e-02
-4.3950685e-02
-3.3891269e-02
-2.5572835e-02
-1.9679645e-02
-1.5375640e-02
-1.1425358e-02
-6.2006540e-03
2.0283155e-03
1.3171239e-02
2.5439991e-02
3.7386052e-02
4.8639517e-02
6.0051201e-02
7.2215375e-02
8.2408368e-02
8.5239053e-02
7.6035647e-02
5.3377593e-02
2.0040173e-02
-1.8166955e-02
-5.4880828e-02
-8.5256796e-02
-1.0630024e-01
-1.1746622e-01
-1.2112236e-01
-1.2036448e-01
-1.1653600e-01
-1.0821420e-01
-9.1986852e-02
-6.4772312e-02
-2.6821384e-02
1.5843941e-02
5.2887507e-02
7.5556888e-02
8.2969706e-02
8.2532190e-02
8.4813879e-02
9.9103231e-02
1.2870762e-01
1.6327908e-01
1.7852018e-01
1.5343382e-01
8.8468143e-02
5.3210187e-03
-6.9587807e-02
-1.2097487e-01
-1.4506126e-01
-1.4409222e-01
-1.2272466e-01
-8.5416144e-02
-3.5865253e-02
2.2643312e-02
8.4055237e-02
1.3712080e-01
1.6739893e-01
1.6424413e-01
1.2855007e-01
7.3190511e-02
1.5474246e-02
-3.2025367e-02
-6.3914208e-02
-8.0540038e-02
-8.6825628e-02
-8.8429006e-02
-8.8244915e-02
-8.5410073e-02
-7.6242886e-02
-5.7957225e-02
-3.1360628e-02
-1.9640426e-03
1.8745029e-02
2.1426856e-02
8.8696167e-03
-8.0533368e-03
-1.8441130e-02
-1.6531457e-02
-3.3042043e-03
1.5838273e-02
3.2478748e-02
3.8466524e-02
3.1107942e-02
1.4135132e-02
-5.0033691e-03
-1.9176613e-02
-2.5090467e-02
-2.3675794e-02
-1.9148121e-02
-1.6547719e-02
-1.7675929e-02
-1.9437108e-02
-1.5647923e-02
-1.5533284e-03
2.3782512e-02
5.6451676e-02
8.5685328e-02
9.8561279e-02
8.8504718e-02
5.9050758e-02
2.0679060e-02
-1.6621007e-02
-4.7385364e-02
-6.9344837e-02
-8.2081551e-02
-8.6299725e-02
-8.2314196e-02
-7.0708210e-02
-5.2065498e-02
-2.6160733e-02
7.1323649e-03
4.6787007e-02
8.8652657e-02
1.2562018e-01
1.4913963e-01
1.5268024e-01
1.3605918e-01
1.0532767e-01
6.9463704e-02
3.4941818e-02
3.4672409e-03
-2.6438910e-02
-5.7166047e-02
-8.7775145e-02
-1.1400633e-01
-1.3224989e-01
-1.4091286e-01
-1.4092582e-01
-1.3543692e-01
-1.2819754e-01
-1.2227476e-01
-1.1907626e-01
-1.1936232e-01
-1.1805291e-01
-1.0481247e-01
-7.7549775e-02
-4.0719534e-02
2.7876348e-03
5.1731887e-02
1.0507977e-01
1.5897025e-01
2.0373652e-01
2.2520483e-01
2.1363634e-01
1.7048646e-01
1.0723938e-01
3.9674488e-02
-1.9622113e-02
-6.3486788e-02
-8.9152806e-02
-9.6586195e-02
-8.6986382e-02
-6.2903117e-02
-2.7494521e-02
1.5074938e-02
5.9458349e-02
9.9754213e-02
1.2975298e-01
1.4382471e-01
1.3926741e-01
1.1773720e-01
8.3588942e-02
4.2505777e-02
-7.6081654e-04
-4.3969879e-02
-8.5722862e-02
-1.2394070e-01
-1.5521152e-01
-1.7549850e-01
-1.8206970e-01
-1.7467486e-01
-1.5524729e-01
-1.2797376e-01
-9.7785305e-02
-6.7505350e-02
-3.7056184e-02
-3.0616071e-03
3.8686215e-02
8.9992064e-02
1.4906209e-01
2.0778703e-01
2.5036746e-01
2.5945118e-01
2.2846924e-01
1.6618502e-01
8.9757724e-02
1.5732938e-02
-4.5396249e-02
-8.9047019e-02
-1.1463787e-01
-1.2368744e-01
-1.1895573e-01
-1.0427542e-01
-8.3735670e-02
-6.1819664e-02
-4.1933365e-02
-2.5073026e-02
-1.0093286e-02
5.2550105e-03
2.1164935e-02
3.5243665e-02
4.4062844e-02
4.4628400e-02
3.6953647e-02
2.3578611e-02
7.1493052e-03
-1.0086105e-02
-2.6171713e-02
-3.9861073e-02
-5.0082792e-02
-5.5099985e-02
-5.3432925e-02
-4.4325631e-02
-2.8274762e-02
-7.6454047e-03
1.4519517e-02
3.5406010e-02
5.2403325e-02
6.2636838e-02
6.2955257e-02
5.0726025e-02
2.6061346e-02
-6.7617041e-03
-4.1171627e-02
-7.0701722e-02
-9.1031769e-02
-1.0068968e-01
-1.0021912e-01
-9.1136855e-02
-7.4390688e-02
-4.9590575e-02
-1.6151572e-02
2.5695510e-02
7.3201415e-02
1.1851709e-01
1.5051438e-01
1.5904589e-01
1.4043230e-01
1.0119368e-01
5.4048014e-02
1.1296772e-02
-1.9628831e-02
-3.5429630e-02
-3.5563808e-02
-2.3925883e-02
-9.6151317e-03
-4.9593545e-03
-1.7054286e-02
-4.2491896e-02
-7.2010289e-02
-9.5778705e-02
-1.0689118e-01
-1.0202681e-01
-7.9882463e-02
-4.1490304e-02
9.5877562e-03
6.7775163e-02
1.2432580e-01
1.6766927e-01
1.8779112e-01
1.8082433e-01
1.5043627e-01
1.0584350e-01
5.6625848e-02
8.6004768e-03
-3.5969725e-02
-7.6967996e-02
-1.1347181e-01
-1.4154257e-01
-1.5630261e-01
-1.5495247e-01
-1.3824749e-01
-1.1034609e-01
-7.8069436e-02
-4.8388816e-02
-2.4015451e-02
-2.8357771e-03
1.8260230e-02
4.0833240e-02
6.3498839e-02
8.0677044e-02
8.6059530e-02
7.8919518e-02
6.4714171e-02
5.0447100e-02
4.1222484e-02
3.8465035e-02
4.0124789e-02
4.3617489e-02
4.7354258e-02
5.0482974e-02
5.2003674e-02
4.9923051e-02
4.1359936e-02
2.2753144e-02
-7.0908053e-03
-4.4406228e-02
-8.1893560e-02
-1.1183032e-01
-1.2935073e-01
-1.3269073e-01
-1.2253925e-01
-1.0154245e-01
-7.2282627e-02
-3.6725583e-02
2.6658457e-03
4.2349584e-02
7.6567200e-02
9.6739680e-02
9.6185789e-02
7.4658197e-02
3.7927195e-02
-5.2579685e-03
-4.6007391e-02
-7.6775753e-02
-9.3835043e-02
-9.7094246e-02
-8.8761232e-02
-7.2684229e-02
-5.2950502e-02
-3.3751072e-02
-1.8065328e-02
-5.9045016e-03
4.5766116e-03
1.5299239e-02
2.7482007e-02
4.1093283e-02
5.4372847e-02
6.4725003e-02
7.0693157e-02
7.2518011e-02
7.0682892e-02
6.3246281e-02
4.5258944e-02
1.3162677e-02
-2.9307947e-02
-7.1740769e-02
-1.0313513e-01
-1.1623995e-01
-1.0940763e-01
-8.4713179e-02
-4.4995641e-02
6.6494789e-03
6.5964775e-02
1.2588188e-01
1.7495201e-01
1.9893723e-01
1.8927452e-01
1.4918446e-01
9.1493186e-02
3.2240713e-02
-1.6259822e-02
-4.7761019e-02
-6.1059334e-02
-5.8206551e-02
-4.3409300e-02
-2.2178476e-02
-5.6991823e-04
1.4930949e-02
2.0353981e-02
1.5464310e-02
1.9965517e-03
-1.6591955e-02
-3.6446448e-02
-5.4754034e-02
-6.9262426e-02
-7.8548065e-02
-8.2243047e-02
-7.9508415e-02
-6.9247051e-02
-5.1327851e-02
-2.7296175e-02
-1.1220044e-03
2.1127161e-02
3.2542980e-02
2.9175258e-02
1.2342978e-02
-1.2033055e-02
-3.5077271e-02
-4.9037004e-02
-4.9591628e-02
-3.5984554e-02
-1.0659139e-02
2.1645519e-02
5.5435102e-02
8.6287246e-02
1.1031653e-01
1.2479107e-01
1.2967399e-01
1.2579060e-01
1.1345165e-01
9.2488289e-02
6.2335956e-02
2.4529478e-02
-1.5508879e-02
-5.0971071e-02
-7.6360726e-02
-8.8721673e-02
-8.8625105e-02
-7.9816411e-02
-6.8756432e-02
-6.2236720e-02
-6.2972533e-02
-6.8417466e-02
-7.3346130e-02
-7.3387537e-02
-6.6367643e-02
-5.2474134e-02
-3.4961675e-02
-1.8612057e-02
-6.6665099e-03
1.6478785e-03
1.1360237e-02
2.7722094e-02
5.3359984e-02
8.7053748e-02
1.2079898e-01
1.4057346e-01
1.3290964e-01
9.4223389e-02
3.3504643e-02
-3.4712599e-02
-9.6884170e-02
-1.4375898e-01
-1.7159723e-01
-1.8091435e-01
-1.7392297e-01
-1.5250317e-01
-1.1697233e-01
-6.6444882e-02
-2.1866836e-03
7.0747563e-02
1.4447431e-01
2.0763055e-01
2.4446478e-01
2.4008595e-01
1.9125385e-01
1.1264576e-01
2.9847686e-02
-3.5568384e-02
-7.3849319e-02
-8.6071105e-02
-7.9560076e-02
-6.3723616e-02
-4.7371443e-02
-3.4221908e-02
-2.2368568e-02
-8.8257688e-03
7.8495733e-03
2.5645221e-02
3.9111409e-02
4.2636893e-02
3.2478357e-02
1.0806352e-02
-1.3254219e-02
-3.1128270e-02
-3.7795596e-02
-3.1854137e-02
-1.6410330e-02
3.3521401e-03
2.2540115e-02
3.8835502e-02
5.2166375e-02
6.1705541e-02
6.5056131e-02
6.0139296e-02
4.7948110e-02
3.3052721e-02
2.0942587e-02
1.4564820e-02
1.2611123e-02
1.0500642e-02
2.9490093e-03
-1.2005495e-02
-3.1363680e-02
-5.0298594e-02
-6.5115232e-02
-7.4802445e-02
-8.0926452e-02
-8.5539886e-02
-8.9971076e-02
-9.3248777e-02
-9.1330625e-02
-8.0392249e-02
-5.9263303e-02
-2.9782165e-02
3.1340039e-03
3.2930949e-02
5.4040778e-02
6.3715023e-02
6.2204251e-02
5.1661740e-02
3.2471765e-02
9.9474150e-03
-2.5024010e-03
8.0377281e-04
1.6967903e-02
4.2289118e-02
7.0789528e-02
9.4649184e-02
1.0417370e-01
9.1427926e-02
5.7976896e-02
1.5085691e-02
-2.3770795e-02
-5.0269312e-02
-6.3458841e-02
-6.8067194e-02
-7.0900440e-02
-7.7641310e-02
-9.1221822e-02
-1.0950656e-01
-1.2670249e-01
-1.3726933e-01
-1.3643585e-01
-1.2141257e-01
-9.3442412e-02
-5.6237182e-02
-1.3900467e-02
2.9878714e-02
7.3685971e-02
1.1879370e-01
1.6692258e-01
2.1733774e-01
2.6322984e-01
2.8978277e-01
2.7987640e-01
2.2664214e-01
1.4082282e-01
4.5246714e-02
-3.9102134e-02
-1.0219490e-01
-1.4229632e-01
-1.6166050e-01
-1.6484176e-01
-1.5650053e-01
-1.3975403e-01
-1.1515268e-01
-8.1711787e-02
-4.0139097e-02
3.5078057e-03
3.7587693e-02
5.0843277e-02
3.9818431e-02
1.0808853e-02
-2.4790567e-02
-5.7352109e-02
-8.2525503e-02
-9.9583184e-02
-1.0928000e-01
-1.1252493e-01
-1.0932500e-01
-9.8770407e-02
-7.9720734e-02
-5.2026454e-02
-1.7176725e-02
2.2667116e-02
6.5734264e-02
1.1031411e-01
1.5385605e-01
1.9010494e-01
2.0882058e-01
2.0176347e-01
1.6890111e-01
1.1948839e-01
6.7233031e-02
2.3642019e-02
-6.3875907e-03
-2.4073574e-02
-3.4361433e-02
-4.3228011e-02
-5.2922924e-02
-6.1036778e-02
-6.3315397e-02
-5.6614873e-02
-4.1459638e-02
-2.1050522e-02
-5.4062682e-04
1.2799592e-02
1.3491470e-02
5.8246357e-05
-2.4964938e-02
-5.4872479e-02
-8.2074782e-02
-1.0149851e-01
-1.1053880e-01
-1.0772888e-01
-9.3020802e-02
-6.7702131e-02
-3.4482831e-02
1.7713704e-03
3.5926167e-02
6.4534680e-02
8.6560326e-02
1.0272879e-01
1.1364009e-01
1.1841701e-01
1.1487928e-01
1.0175000e-01
8.1132729e-02
5.8284717e-02
3.8826115e-02
2.6257398e-02
2.0346226e-02
1.8360060e-02
1.6690909e-02
1.1144348e-02
-4.4564998e-04
-1.7595081e-02
-3.8504046e-02
-5.9472385e-02
-7.5954330e-02
-8.4869956e-02
-8.4886181e-02
-7.6446174e-02
-6.2083719e-02
-4.4534020e-02
-2.6859972e-02
-1.4740727e-02
-1.4112209e-02
-2.7812183e-02
-5.2958061e-02
-8.0829369e-02
-1.0228977e-01
-1.1179873e-01
-1.0855543e-01
-9.5068784e-02
-7.3373537e-02
-4.2957972e-02
-1.5436965e-03
5.2207147e-02
1.1641930e-01
1.8366623e-01
2.3964738e-01
2.6738055e-01
2.5702234e-01
2.1289714e-01
1.5079377e-01
8.9356941e-02
4.1420337e-02
1.0939202e-02
-5.1902330e-03
-1.3526952e-02
-1.9519329e-02
-2.5773529e-02
-3.3291450e-02
-4.3139064e-02
-5.5871503e-02
-7.0933955e-02
-8.6372283e-02
-9.7806517e-02
-1.0076832e-01
-9.2880071e-02
-7.4017538e-02
-4.7102744e-02
-1.9046584e-02
-5.8003151e-04
-3.5397899e-03
-3.5555293e-02
-9.4631573e-02
-1.7092251e-01
-2.5304519e-01
-3.3141499e-01
-4.0019512e-01
-4.5632378e-01
-4.9726317e-01
-5.2121774e-01
-5.2769864e-01
-5.1606265e-01
-4.8458925e-01
-4.3258562e-01
-3.6227328e-01
-2.8048537e-01
