7.8950995e-03
1.4722730e-02
2.1169429e-02
2.6992426e-02
3.1147737e-02
3.3371428e-02
3.2689432e-02
2.7940516e-02
1.9000524e-02
6.3848526e-03
-6.9806751e-03
-1.8010998e-02
-2.4643670e-02
-2.5584085e-02
-2.1432385e-02
-1.3060097e-02
-2.1059185e-03
9.5210223e-03
2.0590786e-02
3.0238335e-02
3.8193355e-02
4.3032313e-02
4.2794986e-02
3.5700639e-02
2.1868613e-02
4.9695505e-03
-1.0293583e-02
-1.9510286e-02
-2.0582433e-02
-1.2976540e-02
2.5137144e-03
1.9955964e-02
3.2145567e-02
3.5199338e-02
2.9160505e-02
1.7699590e-02
4.4656629e-03
-7.1634468e-03
-1.3973967e-02
-1.4566227e-02
-8.8693477e-03
9.8433019e-04
1.1631291e-02
1.9839965e-02
2.3495310e-02
2.2426682e-02
1.6966234e-02
7.9684517e-03
-3.4116915e-03
-1.5139945e-02
-2.3816364e-02
-2.7581788e-02
-2.6461819e-02
-2.2153528e-02
-1.7352933e-02
-1.4348054e-02
-1.5778700e-02
-2.2268876e-02
-3.2881592e-02
-4.6609489e-02
-6.1591964e-02
-7.5959080e-02
-8.7231659e-02
-9.5025214e-02
-1.0086022e-01
-1.0385172e-01
-1.0232451e-01
-9.4871493e-02
-8.1718323e-02
-6.4352239e-02
-4.4147201e-02
-2.4570276e-02
-8.4976483e-03
3.1898627e-03
1.2479937e-02
2.2878872e-02
3.3688973e-02
4.2143844e-02
4.5914937e-02
4.4142698e-02
3.8238550e-02
2.9653542e-02
1.9813484e-02
9.5387357e-03
-2.0333455e-04
-8.7142585e-03
-1.6418972e-02
-2.2043183e-02
-2.5450626e-02
-2.7286648e-02
-2.6710541e-02
-2.4403195e-02
-2.0608720e-02
-1.4973963e-02
-8.0217191e-03
-1.7712686e-03
1.0669567e-04
-3.8821399e-03
-1.2322188e-02
-2.1281276e-02
-2.7435068e-02
-3.0526916e-02
-3.0224874e-02
-2.7288100e-02
-2.2979377e-02
-1.7583119e-02
-1.2078771e-02
-6.9723403e-03
-2.3389963e-03
2.4742517e-03
7.7588637e-03
1.2720700e-02
1.8514668e-02
2.5303031e-02
3.1021867e-02
3.4203753e-02
3.2867051e-02
2.5672927e-02
1.2927094e-02
-3.2607130e-03
-2.0023335e-02
-3.5479076e-02
-4.7686266e-02
-5.6446549e-02
-6.3033386e-02
-6.8141643e-02
-7.1454959e-02
-7.2188499e-02
-7.0264730e-02
-6.4679812e-02
-5.4904124e-02
-4.2666196e-02
-2.9876339e-02
-1.7786170e-02
-5.5816850e-03
7.4577359e-03
1.9946970e-02
3.1568120e-02
4.1661862e-02
4.9167201e-02
5.4622009e-02
5.8880967e-02
6.2306232e-02
6.4812637e-02
6.7300514e-02
7.0257176e-02
7.2261560e-02
7.1719470e-02
6.7201346e-02
5.8796290e-02
4.8462229e-02
3.9446270e-02
3.3957816e-02
3.0452485e-02
2.8652872e-02
2.9411630e-02
3.1430370e-02
3.3478022e-02
3.4527235e-02
3.5280025e-02
3.6293001e-02
3.6445021e-02
3.5997156e-02
3.5034732e-02
3.3914855e-02
3.3737057e-02
3.4352856e-02
3.5277251e-02
3.6357353e-02
3.7794978e-02
3.8653504e-02
3.8143327e-02
3.7059418e-02
3.3942459e-02
2.6796488e-02
1.6680959e-02
6.3817386e-03
-2.4548256e-03
-1.0352822e-02
-1.7396070e-02
-2.3828801e-02
-2.9664219e-02
-3.4629519e-02
-4.0177193e-02
-4.5926727e-02
-5.0639992e-02
-5.4472020e-02
-5.7582026e-02
-6.0814471e-02
-6.4384015e-02
-6.7868705e-02
-7.0421252e-02
-7.2029238e-02
-7.4336235e-02
-7.6804647e-02
-7.8031537e-02
-7.6709684e-02
-7.1037803e-02
-6.0713232e-02
-4.5409311e-02
-2.7074940e-02
-1.0074616e-02
3.3931237e-03
1.2231770e-02
1.7661315e-02
2.2971660e-02
2.9594702e-02
3.6445195e-02
4.2372642e-02
4.8468397e-02
5.4397694e-02
5.8169302e-02
6.0078401e-02
6.0820236e-02
5.9909200e-02
5.6664877e-02
5.1808103e-02
4.6764504e-02
4.1587750e-02
3.6475090e-02
3.2150351e-02
2.9240983e-02
2.6351919e-02
2.0732438e-02
1.2005045e-02
1.7738974e-03
-6.7800946e-03
-1.2398975e-02
-1.6647189e-02
-1.9112607e-02
-1.9206759e-02
-1.7595912e-02
-1.4803122e-02
-1.2214868e-02
-1.1087066e-02
-1.1041013e-02
-9.8878053e-03
-7.1928113e-03
-4.6377490e-03
-2.3713464e-03
-1.0872854e-03
-9.4095818e-04
-1.2264511e-03
-1.6558154e-03
-1.2271022e-03
-4.9474053e-04
1.8160515e-04
9.9822926e-04
1.1072857e-03
9.5601156e-04
1.9539054e-03
5.2723470e-03
9.6491007e-03
1.3403738e-02
1.7449132e-02
2.1411381e-02
2.4723118e-02
2.7651214e-02
3.0335021e-02
3.3489090e-02
3.6279076e-02
3.8337375e-02
4.0029425e-02
4.1459495e-02
4.3084876e-02
4.3749133e-02
4.3141440e-02
4.1208721e-02
3.6611989e-02
3.0330669e-02
2.4132817e-02
1.8820244e-02
1.4628206e-02
1.0570856e-02
5.2056748e-03
-1.0559759e-03
-5.2511130e-03
-7.1647203e-03
-9.3693096e-03
-1.2257840e-02
-1.5146954e-02
-1.6598730e-02
-1.5935295e-02
-1.4080415e-02
-1.1716405e-02
-1.0405275e-02
-1.0365357e-02
-1.1348875e-02
-1.4982553e-02
-2.1634595e-02
-3.0464362e-02
-3.9768337e-02
-4.7607653e-02
-5.3021977e-02
-5.5737182e-02
-5.6319715e-02
-5.5140001e-02
-5.2219450e-02
-4.6072985e-02
-3.5326093e-02
-2.2757449e-02
-1.2667601e-02
-7.1944707e-03
-5.1024961e-03
-3.9106395e-03
-3.4876487e-03
-3.7582783e-03
-4.5798115e-03
-6.3433909e-03
-7.3067278e-03
-6.4154566e-03
-4.5619212e-03
-2.8632109e-03
-1.5054457e-03
-5.7309546e-04
-8.2915993e-04
-2.1587719e-03
-4.9388141e-03
-8.0938019e-03
-9.6956255e-03
-1.1093168e-02
-1.4293042e-02
-2.0087648e-02
-2.8224215e-02
-3.8817962e-02
-4.9258671e-02
-5.2625326e-02
-4.6854409e-02
-3.3539604e-02
-1.4321794e-02
7.5993187e-03
3.0043623e-02
5.0885398e-02
7.0203270e-02
9.0022941e-02
1.1013153e-01
1.2937821e-01
1.4612046e-01
1.6020755e-01
1.7248754e-01
1.8273010e-01
1.9112688e-01
1.9707405e-01
2.0011062e-01
1.9981275e-01
1.9436358e-01
1.8307396e-01
1.6458156e-01
1.3619259e-01
9.2864063e-02
3.7268275e-02
-1.4597974e-02
-5.5677170e-02
-8.8542072e-02
-1.1352901e-01
-1.3137336e-01
-1.4358963e-01
-1.5138828e-01
-1.5430410e-01
-1.5259459e-01
-1.4814294e-01
-1.4217492e-01
-1.3558073e-01
-1.2780203e-01
-1.1882529e-01
-1.1002891e-01
-1.0176096e-01
-9.4524754e-02
-8.7693151e-02
-8.0356470e-02
-7.2625229e-02
-6.3422623e-02
-5.2748509e-02
-4.1404075e-02
-2.9158672e-02
-1.7214088e-02
-7.8099641e-03
-2.2219107e-03
6.5331746e-04
1.8348920e-03
1.6509299e-04
-3.7027136e-03
-8.4649744e-03
-1.3434412e-02
-1.8035789e-02
-2.2587331e-02
-2.7005394e-02
-3.1784948e-02
-3.6519739e-02
-3.9948144e-02
-4.1936461e-02
-4.2358780e-02
-4.2007886e-02
-4.1258083e-02
-3.9118423e-02
-3.4810879e-02
-2.7534429e-02
-1.6552532e-02
-1.6892158e-04
2.2936556e-02
4.8597572e-02
6.8526932e-02
7.8867512e-02
8.1868245e-02
7.9791342e-02
7.4121094e-02
6.6139738e-02
5.5717803e-02
4.3457983e-02
3.0275793e-02
1.7216655e-02
5.8484599e-03
-3.7018390e-03
-1.2160528e-02
-2.0340804e-02
-2.8007563e-02
-3.4257430e-02
-3.9113667e-02
-4.2261470e-02
-4.3599437e-02
-4.2869970e-02
-3.9420517e-02
-3.3969341e-02
-2.6565753e-02
-1.6058894e-02
-2.6819666e-03
1.0489769e-02
2.0519025e-02
2.7785682e-02
3.2683656e-02
3.4942952e-02
3.5363501e-02
3.4573299e-02
3.2777530e-02
2.9134804e-02
2.3524141e-02
1.7161701e-02
1.0547627e-02
3.8920914e-03
-4.0791750e-03
-1.3604554e-02
-2.2746364e-02
-3.1043285e-02
-3.8419162e-02
-4.5271005e-02
-5.1485851e-02
-5.5995082e-02
-5.8619055e-02
-5.8395757e-02
-5.4491311e-02
-4.7598371e-02
-3.9602422e-02
-3.1642314e-02
-2.2910554e-02
-1.3976026e-02
-5.7120073e-03
2.3300954e-03
9.8709919e-03
1.6940952e-02
2.3240701e-02
2.8664573e-02
3.3947534e-02
3.9019340e-02
4.3412174e-02
4.5962060e-02
4.6709782e-02
4.6726111e-02
4.6480188e-02
4.6082750e-02
4.4561041e-02
4.2038488e-02
3.9543850e-02
3.7240558e-02
3.5558590e-02
3.5034421e-02
3.5962854e-02
3.7396584e-02
3.8561624e-02
4.0142282e-02
4.1903238e-02
4.4119212e-02
4.6873675e-02
4.9068079e-02
5.0303596e-02
4.9727843e-02
4.7566747e-02
4.4812437e-02
4.1997098e-02
3.9636823e-02
3.6863271e-02
3.3936944e-02
3.1474747e-02
2.9241241e-02
2.8142222e-02
2.7976126e-02
2.7721192e-02
2.6035496e-02
2.1498050e-02
1.4208422e-02
4.1350858e-03
-7.2688935e-03
-1.7487484e-02
-2.5499861e-02
-3.0672706e-02
-3.3677395e-02
-3.5239820e-02
-3.4847048e-02
-3.1826038e-02
-2.6344681e-02
-1.9967191e-02
-1.3381832e-02
-8.0760569e-03
-5.6757249e-03
-4.3818135e-03
-2.4427763e-03
6.2565171e-04
4.1876153e-03
8.0256423e-03
1.2647376e-02
1.6473043e-02
1.8980870e-02
2.0117899e-02
1.8662284e-02
1.3496526e-02
2.9081488e-03
-1.0148401e-02
-1.9287935e-02
-2.1989392e-02
-1.9070531e-02
-1.3646511e-02
-8.6700184e-03
-6.0326270e-03
-6.3940991e-03
-9.0525961e-03
-1.4494857e-02
-2.2507313e-02
-3.2515987e-02
-4.4259283e-02
-5.5775658e-02
-6.5679474e-02
-7.3289684e-02
-7.8247493e-02
-8.0249974e-02
-7.8553915e-02
-7.3739288e-02
-6.5713097e-02
-5.4447129e-02
-4.0686345e-02
-2.4289022e-02
-5.8033824e-03
1.3222636e-02
3.0469335e-02
4.5272541e-02
5.8478508e-02
6.9747864e-02
7.9587514e-02
8.8397118e-02
9.5925472e-02
1.0292660e-01
1.1008500e-01
1.1783728e-01
1.2538943e-01
1.3280663e-01
1.4100823e-01
1.4873167e-01
1.5397154e-01
1.5473865e-01
1.5091945e-01
1.4317840e-01
1.3173453e-01
1.1794233e-01
1.0215242e-01
8.4891314e-02
6.6540485e-02
4.5632930e-02
2.3527584e-02
3.4806071e-03
-1.3282387e-02
-2.6624994e-02
-3.6244149e-02
-4.2765744e-02
-4.8588941e-02
-5.4163215e-02
-5.9769724e-02
-6.7129006e-02
-7.6136260e-02
-8.7361790e-02
-1.0125881e-01
-1.1621628e-01
-1.3000370e-01
-1.4056563e-01
-1.4709422e-01
-1.4847206e-01
-1.4374060e-01
-1.3328531e-01
-1.1867834e-01
-1.0301812e-01
-8.7178914e-02
-6.9512431e-02
-4.8401615e-02
-2.5870580e-02
-7.4309405e-03
6.1352256e-03
1.6512647e-02
2.3547944e-02
2.5924870e-02
2.0954427e-02
8.8039671e-03
-7.5804206e-03
-2.5253744e-02
-4.2105900e-02
-5.7887239e-02
-7.1567088e-02
-8.1336622e-02
-8.6575212e-02
-8.8546902e-02
-8.9333873e-02
-8.8645186e-02
-8.6062425e-02
-8.1796113e-02
-7.5814747e-02
-6.8958412e-02
-6.0678684e-02
-4.8739465e-02
-3.0046180e-02
-7.0510230e-03
1.1133679e-02
2.1424849e-02
2.6122780e-02
2.7396376e-02
2.7458238e-02
2.7751104e-02
3.0099952e-02
3.4509573e-02
3.9952307e-02
4.5791448e-02
5.0692701e-02
5.4329613e-02
5.6393133e-02
5.6848302e-02
5.6395264e-02
5.5797262e-02
5.6330438e-02
5.7369536e-02
5.6713322e-02
5.2068621e-02
4.3104420e-02
3.1961273e-02
1.8407128e-02
1.8719460e-03
-1.5105880e-02
-2.9382301e-02
-3.9284347e-02
-4.5927046e-02
-4.9899134e-02
-5.0145906e-02
-4.8218333e-02
-4.6301173e-02
-4.4897319e-02
-4.3238659e-02
-4.1207278e-02
-3.9708447e-02
-3.7455795e-02
-3.3535540e-02
-2.7983495e-02
-2.0543307e-02
-1.1695874e-02
-1.9441403e-03
6.9891984e-03
1.3646877e-02
1.8296688e-02
2.1069572e-02
2.1905598e-02
2.0951829e-02
1.9108055e-02
1.7229345e-02
1.5947424e-02
1.5827918e-02
1.5927325e-02
1.6095697e-02
1.6677751e-02
1.7335471e-02
1.7737903e-02
1.6381996e-02
1.3895930e-02
1.1300723e-02
7.6177943e-03
3.3406432e-03
-1.4222902e-03
-6.2366586e-03
-9.9730007e-03
-1.2974101e-02
-1.5247892e-02
-1.7027614e-02
-1.8051776e-02
-1.7785966e-02
-1.7101797e-02
-1.6729813e-02
-1.7253071e-02
-1.7502291e-02
-1.6045253e-02
-1.3031736e-02
-9.0469242e-03
-5.7511243e-03
-3.5451022e-03
-1.2462121e-03
2.0369349e-03
6.1219325e-03
1.0795401e-02
1.6444640e-02
2.2056580e-02
2.6940997e-02
3.1073540e-02
3.3671785e-02
3.5672276e-02
3.7966134e-02
4.0474218e-02
4.3384501e-02
4.5719735e-02
4.7366814e-02
4.8721171e-02
4.9504732e-02
4.9024586e-02
4.6723272e-02
4.3490444e-02
3.9395450e-02
3.4865844e-02
3.1427983e-02
2.8965288e-02
2.7426215e-02
2.6309780e-02
2.4908698e-02
2.3566250e-02
2.2232877e-02
2.0867638e-02
1.8950866e-02
1.6865564e-02
1.5233379e-02
1.2983359e-02
9.6819325e-03
5.4517041e-03
9.0199573e-04
-3.3040048e-03
-6.8945031e-03
-9.2615329e-03
-1.1260714e-02
-1.3179875e-02
-1.4664551e-02
-1.6302716e-02
-1.8221062e-02
-2.1064534e-02
-2.4210711e-02
-2.7076280e-02
-3.0821683e-02
-3.5511264e-02
-4.1126555e-02
-4.6464487e-02
-5.0273945e-02
-5.3054617e-02
-5.4561693e-02
-5.5091405e-02
-5.5016020e-02
-5.4441548e-02
-5.3622809e-02
-5.2440516e-02
-5.1521578e-02
-5.0807696e-02
-5.0028372e-02
-4.8857063e-02
-4.6419010e-02
-4.3173594e-02
-3.8747609e-02
-3.2782069e-02
-2.6165838e-02
-1.7770488e-02
-7.9324386e-03
6.2152352e-04
6.8378071e-03
1.1685941e-02
1.6377299e-02
1.9518454e-02
2.0629060e-02
2.0915187e-02
2.0293969e-02
1.8933292e-02
1.6673226e-02
1.4409556e-02
1.2746430e-02
1.0741190e-02
8.9483868e-03
8.0336757e-03
8.2678971e-03
9.1416274e-03
1.0241756e-02
1.1814995e-02
1.2666553e-02
1.3142970e-02
1.3976883e-02
1.4144554e-02
1.3538808e-02
1.1903408e-02
9.7460171e-03
8.5984757e-03
9.1152831e-03
1.1117417e-02
1.3697848e-02
1.6664647e-02
1.9316300e-02
2.1022146e-02
2.2555011e-02
2.4121338e-02
2.5928608e-02
2.7346282e-02
2.7248986e-02
2.5467955e-02
2.2141955e-02
1.8035697e-02
1.3335051e-02
8.5139386e-03
4.1513156e-03
-6.8820494e-04
-5.1603264e-03
-8.3051787e-03
-1.0761189e-02
-1.3132953e-02
-1.6527444e-02
-2.0340459e-02
-2.3158319e-02
-2.3350701e-02
-2.0576085e-02
-1.6820962e-02
-1.1916870e-02
-5.9847588e-03
-4.4385145e-05
5.8591314e-03
1.0429089e-02
1.3502540e-02
1.6402422e-02
1.9639225e-02
2.2542113e-02
2.4207262e-02
2.6116657e-02
2.8851210e-02
3.1520238e-02
3.4425048e-02
3.7355631e-02
3.9799743e-02
4.0538028e-02
3.9030797e-02
3.6037066e-02
3.1340249e-02
2.4929338e-02
1.7331585e-02
9.9698182e-03
4.3411818e-03
-2.3746880e-04
-4.7197994e-03
-9.3450010e-03
-1.3512720e-02
-1.6802245e-02
-1.9888391e-02
-2.2749114e-02
-2.5588316e-02
-2.8487960e-02
-3.0342480e-02
-3.0766204e-02
-3.0732731e-02
-3.1943175e-02
-3.3286818e-02
-3.2168864e-02
-2.9082897e-02
-2.4962751e-02
-2.0664616e-02
-1.6460155e-02
-1.2265550e-02
-9.2024867e-03
-6.0344481e-03
-1.0983996e-03
5.3491297e-03
1.2123501e-02
1.7560290e-02
2.2757464e-02
2.8828316e-02
3.3729523e-02
3.5581555e-02
3.4830421e-02
3.2618080e-02
2.8477008e-02
2.3140758e-02
1.7671794e-02
1.1789697e-02
6.4962318e-03
1.8162630e-03
-1.9562578e-03
-3.9424238e-03
-5.0878098e-03
-6.0073594e-03
-7.4474245e-03
-9.3658196e-03
-1.1292741e-02
-1.3439392e-02
-1.4801056e-02
-1.5735827e-02
-1.7329168e-02
-1.8887905e-02
-1.9457323e-02
-1.8767948e-02
-1.8063818e-02
-1.7711690e-02
-1.7304981e-02
-1.7190761e-02
-1.6334716e-02
-1.4399464e-02
-1.2000064e-02
-9.5371185e-03
-6.6844614e-03
-2.8746854e-03
7.6238587e-04
4.4257633e-03
8.4593385e-03
1.2261507e-02
1.6314286e-02
1.9398436e-02
2.0842603e-02
2.1739675e-02
2.2002045e-02
2.1840440e-02
2.1507173e-02
2.0344200e-02
1.7162424e-02
1.2936565e-02
9.5177217e-03
5.3496402e-03
-3.9618886e-04
-6.7285703e-03
-1.2812368e-02
-1.7856071e-02
-2.2355194e-02
-2.6158221e-02
-2.9121421e-02
-3.1769562e-02
-3.4178675e-02
-3.6585689e-02
-3.7977076e-02
-3.8350040e-02
-3.7833075e-02
-3.5606401e-02
-3.2850685e-02
-2.9023400e-02
-2.2759242e-02
-1.5096366e-02
-8.1757856e-03
-3.6104513e-03
-7.6444912e-05
3.8397101e-03
8.1772106e-03
1.3126556e-02
1.7725056e-02
2.1287298e-02
2.4230786e-02
2.7884677e-02
3.3213691e-02
3.8194997e-02
4.2344257e-02
4.6692475e-02
5.0559668e-02
5.3662633e-02
5.5154836e-02
5.5090276e-02
5.4157047e-02
5.1939177e-02
4.8154914e-02
4.2221815e-02
3.3844326e-02
2.1694117e-02
6.8799707e-03
-5.6304061e-03
-1.4193519e-02
-1.9640152e-02
-2.3818938e-02
-2.7535223e-02
-2.8930486e-02
-2.8688987e-02
-2.7856016e-02
-2.7258296e-02
-2.8318694e-02
-3.0791059e-02
-3.5138912e-02
-4.1384258e-02
-5.0313993e-02
-6.3146583e-02
-7.8341740e-02
-9.5043864e-02
-1.1232857e-01
-1.2769908e-01
-1.3763818e-01
-1.3933230e-01
-1.3233093e-01
-1.1585509e-01
-8.9308512e-02
-5.6127255e-02
-2.3507024e-02
3.9466782e-03
2.6166503e-02
4.4333761e-02
6.0114730e-02
7.4682217e-02
8.7945887e-02
9.9381886e-02
1.0835017e-01
1.1569073e-01
1.2318314e-01
1.3088916e-01
1.3735116e-01
1.4127689e-01
1.4328278e-01
1.4383206e-01
1.4227926e-01
1.3880506e-01
1.3314140e-01
1.2460972e-01
1.1181259e-01
9.2938297e-02
6.7179768e-02
3.2240822e-02
-7.5410751e-03
-4.1047476e-02
-6.5343173e-02
-8.1983027e-02
-9.1523047e-02
-9.6064024e-02
-9.8443396e-02
-1.0004909e-01
-1.0008471e-01
-9.8989212e-02
-9.7198215e-02
-9.4340335e-02
-9.0584966e-02
-8.5783530e-02
-8.0783016e-02
-7.5742290e-02
-7.0076134e-02
-6.4055105e-02
-5.7573576e-02
-5.0848229e-02
-4.3470332e-02
-3.5640231e-02
-2.7968749e-02
-1.8705006e-02
-7.6024410e-03
3.6159071e-03
1.3714164e-02
2.1742578e-02
2.7787849e-02
3.2256799e-02
3.5391826e-02
3.6908022e-02
3.6403395e-02
3.4237886e-02
3.0142443e-02
2.4848034e-02
1.9560173e-02
1.3703341e-02
7.5471133e-03
1.9637699e-03
-2.3271994e-03
-4.7026059e-03
-5.3338366e-03
-4.5279255e-03
-3.4092462e-03
-2.8813093e-03
-2.9830893e-03
-3.0933175e-03
-2.3917129e-03
-1.3724226e-03
-1.0846969e-04
1.5132769e-03
3.0163185e-03
4.6909633e-03
6.2080597e-03
7.2078014e-03
7.4966093e-03
6.9899856e-03
6.6851799e-03
6.6836639e-03
6.9761499e-03
7.2989009e-03
7.9885573e-03
9.6157428e-03
1.0571201e-02
1.0857605e-02
1.1480665e-02
1.2556784e-02
1.3784016e-02
1.4284589e-02
1.4253228e-02
1.3629995e-02
1.2291037e-02
1.0813528e-02
8.1481516e-03
4.1463411e-03
5.1040245e-04
-1.8283297e-03
-3.2654225e-03
-4.9037194e-03
-6.2040635e-03
-6.8066591e-03
-7.1914185e-03
-6.9049529e-03
-5.9319303e-03
-5.2523019e-03
-6.4234549e-03
-8.6657721e-03
-1.0226708e-02
-1.1640198e-02
-1.3147734e-02
-1.4917844e-02
-1.6816297e-02
-1.7661868e-02
-1.7162981e-02
-1.4959383e-02
-1.1868162e-02
-9.3943042e-03
-7.5493414e-03
-5.8578650e-03
-3.6214147e-03
-1.7167587e-03
-4.1967969e-04
1.1438347e-03
2.7039814e-03
5.2461077e-03
9.4971238e-03
1.4650351e-02
1.9465300e-02
2.3185364e-02
2.6251547e-02
2.8684759e-02
3.0761873e-02
3.2823541e-02
3.3944221e-02
3.3644768e-02
3.2301280e-02
3.0177709e-02
2.7437232e-02
2.4311055e-02
2.0514309e-02
1.5360669e-02
9.2266429e-03
2.2879617e-03
-5.9092191e-03
-1.3906336e-02
-2.0926687e-02
-2.6864993e-02
-3.1417292e-02
-3.6201146e-02
-4.1446590e-02
-4.6498112e-02
-5.0960310e-02
-5.4422616e-02
-5.7248591e-02
-5.9859166e-02
-6.2580648e-02
-6.4811718e-02
-6.6464879e-02
-6.8001391e-02
-6.9336436e-02
-7.0957688e-02
-7.3118295e-02
-7.5655417e-02
-7.7685584e-02
-7.8266830e-02
-7.7394678e-02
-7.2776370e-02
-6.1711754e-02
-4.2045503e-02
-1.5134224e-02
1.1789764e-02
3.6783415e-02
6.1839727e-02
8.6887146e-02
1.1107615e-01
1.3165021e-01
1.4742481e-01
1.5721881e-01
1.5904401e-01
1.5355904e-01
1.4187192e-01
1.2665435e-01
1.1175123e-01
9.9477692e-02
8.9849167e-02
8.0838938e-02
7.2039818e-02
6.2791526e-02
5.1756238e-02
3.8469327e-02
2.1898420e-02
3.2593843e-03
-1.4523376e-02
-2.8177733e-02
-3.4734423e-02
-3.5159479e-02
-3.3629472e-02
-3.3817384e-02
-3.6296146e-02
-4.0124607e-02
-4.5482860e-02
-5.1392116e-02
-5.7107165e-02
-6.2788198e-02
-6.6787038e-02
-6.8263580e-02
-6.8018512e-02
-6.6458920e-02
-6.2350111e-02
-5.5304866e-02
-4.7461854e-02
-3.9391192e-02
-3.0425880e-02
-2.0428305e-02
-1.0110562e-02
-8.6596693e-04
7.4705347e-03
1.5591174e-02
2.5096601e-02
3.6003189e-02
4.4309260e-02
4.7953620e-02
4.8013182e-02
4.6321882e-02
4.3602298e-02
3.9650739e-02
3.5161966e-02
2.9663223e-02
2.3439812e-02
1.7814615e-02
1.2100153e-02
6.4527076e-03
1.3091371e-03
-3.5913688e-03
-7.8561881e-03
-1.1119718e-02
-1.2392327e-02
-1.2247803e-02
-1.1593000e-02
-1.0389150e-02
-9.3994700e-03
-8.3813109e-03
-7.9546462e-03
-9.1141694e-03
-1.1224843e-02
-1.3454797e-02
-1.4766037e-02
-1.4890311e-02
-1.3479776e-02
-1.0448019e-02
-6.7637631e-03
-3.0588449e-03
-1.7702401e-04
2.5210502e-03
5.4600083e-03
7.2440041e-03
7.6762699e-03
6.5201292e-03
4.0978170e-03
1.4542319e-03
-1.1118445e-03
-2.3168906e-03
-1.9537777e-03
-1.4107205e-03
-1.4311714e-03
-1.5983522e-03
-8.6740099e-04
5.6653784e-04
2.2344859e-03
3.3565613e-03
3.3726489e-03
2.8734921e-03
1.0208071e-03
-1.8097596e-03
-4.1699401e-03
-6.5018817e-03
-8.8609254e-03
-1.1375134e-02
-1.3390001e-02
-1.3902726e-02
-1.3393186e-02
-1.1841127e-02
-9.6420648e-03
-6.7130662e-03
-2.7662019e-03
1.3144705e-03
5.4554354e-03
8.9192045e-03
1.1140050e-02
1.2433647e-02
1.3043770e-02
1.3763498e-02
1.3786738e-02
1.2882658e-02
1.2242939e-02
1.1324603e-02
9.0035850e-03
4.6279492e-03
-9.4486623e-04
-6.0972274e-03
-9.8895685e-03
-1.2296896e-02
-1.4370586e-02
-1.5932637e-02
-1.7600742e-02
-2.0825708e-02
-2.4472128e-02
-2.7588977e-02
-2.9661255e-02
-3.0384913e-02
-3.0070961e-02
-2.9070820e-02
-2.8565110e-02
-2.8177458e-02
-2.7376972e-02
-2.6162737e-02
-2.3601764e-02
-2.0467539e-02
-1.7071687e-02
-1.2975855e-02
-9.0107225e-03
-5.9336560e-03
-4.2415589e-03
-3.0266217e-03
-1.8759227e-03
-6.1762871e-04
1.1939966e-03
2.4980131e-03
3.9827770e-03
5.8933423e-03
6.9000474e-03
7.6409694e-03
8.7230586e-03
1.0101317e-02
1.1201263e-02
1.1614295e-02
1.2478804e-02
1.4167227e-02
1.5809568e-02
1.5750932e-02
1.3941357e-02
1.1239724e-02
5.5139151e-03
-3.7321672e-03
-1.3477996e-02
-2.1032653e-02
-2.6097677e-02
-2.9528267e-02
-3.0607549e-02
-2.9355638e-02
-2.6605034e-02
-2.2287585e-02
-1.6660396e-02
-1.0411404e-02
-4.5066678e-03
1.4834360e-03
7.7517080e-03
1.2817486e-02
1.6922372e-02
2.0922950e-02
2.4864379e-02
2.7993015e-02
3.0059318e-02
3.1974975e-02
3.2794967e-02
3.2181321e-02
3.0719914e-02
2.8961484e-02
2.8795560e-02
2.9857550e-02
3.1419183e-02
3.4096881e-02
3.7225639e-02
4.0152827e-02
4.2723905e-02
4.5912344e-02
5.0102073e-02
5.4437294e-02
5.9118520e-02
6.2996959e-02
6.5648837e-02
6.8107571e-02
7.0245079e-02
7.2624083e-02
7.4717280e-02
7.5316109e-02
7.4912085e-02
7.4322586e-02
7.2817217e-02
6.7974204e-02
5.9122997e-02
4.6435834e-02
2.8464565e-02
3.1941733e-03
-2.5823428e-02
-4.8801861e-02
-6.2816630e-02
-7.0266659e-02
-7.2233002e-02
-7.1436617e-02
-6.9626092e-02
-6.6792266e-02
-6.3154183e-02
-5.9699876e-02
-5.7580207e-02
-5.6489627e-02
-5.6144324e-02
-5.6052462e-02
-5.6013482e-02
-5.7270365e-02
-5.8787803e-02
-5.8819928e-02
-5.7444685e-02
-5.5503015e-02
-5.4045862e-02
-5.2253464e-02
-4.8678125e-02
-4.2947492e-02
-3.5604678e-02
-2.8449310e-02
-2.2175208e-02
-1.6884508e-02
-1.3223542e-02
-1.1405361e-02
-1.1800354e-02
-1.3274429e-02
-1.4635794e-02
-1.6171036e-02
-1.7291502e-02
-1.7314476e-02
-1.6082918e-02
-1.4316035e-02
-1.2441001e-02
-1.0047856e-02
-7.3452057e-03
-3.7704227e-03
2.2340163e-04
3.4936976e-03
6.3720776e-03
9.5055459e-03
1.3528604e-02
1.8612730e-02
2.5032449e-02
3.2696186e-02
4.0135096e-02
4.5438365e-02
4.7959373e-02
4.8674304e-02
4.7504719e-02
4.3466493e-02
3.7932295e-02
3.2078745e-02
2.6431435e-02
2.2474153e-02
1.9604421e-02
1.6328198e-02
1.2237172e-02
7.7765213e-03
3.5525390e-03
-2.6426417e-05
-2.3328735e-03
-4.2582714e-03
-6.0509503e-03
-6.5140470e-03
-6.3616065e-03
-6.6254812e-03
-8.0304330e-03
-1.0360958e-02
-1.2207373e-02
-1.3012005e-02
-1.2274562e-02
-1.0112567e-02
-7.3470916e-03
-4.5058070e-03
-1.5819813e-03
1.7109103e-03
4.7624532e-03
7.7957330e-03
1.0817823e-02
1.2702403e-02
1.3839943e-02
1.5092619e-02
1.7090220e-02
1.9409684e-02
2.0681603e-02
2.0235531e-02
1.7347232e-02
1.2620577e-02
6.8775845e-03
-5.4713290e-05
-7.5345526e-03
-1.5152099e-02
-2.1032631e-02
-2.4858427e-02
-2.8876484e-02
-3.3261664e-02
-3.7776236e-02
-4.1088593e-02
-4.2725135e-02
-4.4545621e-02
-4.7077524e-02
-4.9781819e-02
-5.1480981e-02
-5.1621137e-02
-5.0744347e-02
-4.9078923e-02
-4.6958968e-02
-4.3644080e-02
-3.8737274e-02
-3.3157119e-02
-2.6795286e-02
-1.9990206e-02
-1.3588551e-02
-7.2167192e-03
2.2083822e-04
8.8275446e-03
1.7828773e-02
2.8032762e-02
3.9979536e-02
5.1452658e-02
6.0499921e-02
6.7093547e-02
7.1334709e-02
7.2777625e-02
7.1846611e-02
6.9206303e-02
6.4862045e-02
6.0210044e-02
5.5459364e-02
4.8964475e-02
4.0425228e-02
3.0974393e-02
2.2665917e-02
1.5731863e-02
9.5610942e-03
4.3898510e-03
-5.8042903e-04
-5.7620165e-03
-1.0977835e-02
-1.5711353e-02
-1.9360735e-02
-2.1994996e-02
-2.2970672e-02
-2.2532263e-02
-2.1373617e-02
-1.9989274e-02
-1.9768521e-02
-2.0522729e-02
-2.1781238e-02
-2.2968523e-02
-2.3603795e-02
-2.4325204e-02
-2.4385800e-02
-2.3289119e-02
-2.0343151e-02
-1.5352611e-02
-9.9499397e-03
-4.6787201e-03
2.8695974e-04
5.3762237e-03
1.0454907e-02
1.4651026e-02
1.8887628e-02
2.3112249e-02
2.6657010e-02
2.8885564e-02
2.9281742e-02
3.0149209e-02
3.2414460e-02
3.4015046e-02
3.3152539e-02
2.9936613e-02
2.6750801e-02
2.3879419e-02
2.0506254e-02
1.7911633e-02
1.6675837e-02
1.6541140e-02
1.6153534e-02
1.4769782e-02
1.3040020e-02
1.1477997e-02
1.1203004e-02
1.1695692e-02
1.2764988e-02
1.4698907e-02
1.5813900e-02
1.5897772e-02
1.4802546e-02
1.1874759e-02
7.7378350e-03
2.0047812e-03
-6.5313659e-03
-1.9484956e-02
-3.4457717e-02
-4.6021754e-02
-5.2558756e-02
-5.4829913e-02
-5.4791438e-02
-5.2831931e-02
-4.8632325e-02
-4.4102338e-02
-3.9776031e-02
-3.5390687e-02
-3.0888732e-02
-2.5740471e-02
-2.0013063e-02
-1.3939136e-02
-8.6787605e-03
-4.6816865e-03
-1.2635562e-03
9.5977128e-04
1.6060473e-03
1.1969225e-03
9.7278813e-04
1.6611039e-03
3.1539059e-03
5.5629268e-03
8.5406479e-03
1.1883431e-02
1.4794966e-02
1.6479375e-02
1.6741513e-02
1.5468611e-02
1.4296854e-02
1.3816230e-02
1.3271296e-02
1.2747628e-02
1.1597052e-02
1.0362286e-02
9.2552579e-03
7.0567418e-03
4.2278506e-03
6.1961869e-04
-4.1182117e-03
-9.0582569e-03
-1.3136509e-02
-1.6059214e-02
-1.8369441e-02
-1.9828304e-02
-2.1006186e-02
-2.1868189e-02
-2.0883804e-02
-1.8045803e-02
-1.3556630e-02
-8.2118423e-03
-3.2950696e-03
9.4809435e-04
4.8934514e-03
8.6976625e-03
1.0782768e-02
1.1342158e-02
1.2686160e-02
1.4551262e-02
1.5870150e-02
1.5699029e-02
1.3900185e-02
1.1684549e-02
9.4943012e-03
6.8751206e-03
2.2908760e-03
-3.2707749e-03
-7.2170292e-03
-9.8025038e-03
-1.1728868e-02
-1.4043878e-02
-1.7121651e-02
-1.9479364e-02
-2.0664988e-02
-2.1005354e-02
-2.1710802e-02
-2.2630486e-02
-2.2953170e-02
-2.4035825e-02
-2.5337013e-02
-2.5984307e-02
-2.6750246e-02
-2.7868391e-02
-2.9226022e-02
-3.0458205e-02
-3.1381484e-02
-3.1593174e-02
-3.1328254e-02
-3.1428355e-02
-3.0997051e-02
-2.8962577e-02
-2.5526337e-02
-2.2117286e-02
-1.8580824e-02
-1.2713424e-02
-5.7220724e-03
1.3516305e-03
9.9947260e-03
2.0724346e-02
3.2475177e-02
4.2304977e-02
4.9883456e-02
5.6983754e-02
6.2766622e-02
6.5194398e-02
6.3954489e-02
6.1230374e-02
5.7339737e-02
5.1515854e-02
4.5387415e-02
3.9753900e-02
3.5048625e-02
3.1551551e-02
2.8434089e-02
2.4907618e-02
2.0050317e-02
1.4135380e-02
7.9149202e-03
2.0916321e-03
-2.6616641e-03
-7.1803248e-03
-1.1899270e-02
-1.6925077e-02
-2.2360010e-02
-2.7180432e-02
-3.0874905e-02
-3.2664384e-02
-3.2032455e-02
-3.0670475e-02
-2.9851758e-02
-2.9076656e-02
-2.7847903e-02
-2.6380244e-02
-2.3994087e-02
-2.0515433e-02
-1.7722376e-02
-1.5560722e-02
-1.3245119e-02
-1.0839343e-02
-7.8613842e-03
-5.3548526e-03
-3.5370233e-03
-1.0149381e-03
2.2401030e-03
5.8364551e-03
9.0506824e-03
1.1337842e-02
1.2204179e-02
1.2554981e-02
1.4005145e-02
1.4903241e-02
1.3948483e-02
1.2014392e-02
1.0468267e-02
9.9608296e-03
9.7557278e-03
1.0308814e-02
1.1735420e-02
1.3985370e-02
1.7388842e-02
2.0074786e-02
2.0958544e-02
2.0491033e-02
1.9574520e-02
1.9565478e-02
2.0101724e-02
1.9505183e-02
1.7150347e-02
1.4364814e-02
1.1440283e-02
7.3371750e-03
1.9915323e-03
-5.4455767e-03
-1.5222679e-02
-2.5410325e-02
-3.3906427e-02
-3.9517675e-02
-4.2573571e-02
-4.3461896e-02
-4.2221103e-02
-4.0011326e-02
-3.7200074e-02
-3.3174278e-02
-2.7340194e-02
-1.9967484e-02
-1.2312203e-02
-5.1020234e-03
5.4845253e-04
4.6140548e-03
7.9731394e-03
1.0913579e-02
1.3539164e-02
1.5066566e-02
1.5913919e-02
1.6724364e-02
1.6975823e-02
1.6836787e-02
1.6225205e-02
1.5583938e-02
1.5189956e-02
1.4519534e-02
1.3707251e-02
1.2779145e-02
1.1868393e-02
1.0785535e-02
9.3053263e-03
7.7758472e-03
6.7872195e-03
7.1747691e-03
8.3482625e-03
9.9918058e-03
1.3175879e-02
1.6922967e-02
2.0140674e-02
2.2931920e-02
2.5042729e-02
2.6700352e-02
2.7556168e-02
2.7886484e-02
2.8475007e-02
2.8602826e-02
2.7399533e-02
2.4358093e-02
1.8974039e-02
1.1580458e-02
4.8135953e-03
-2.9694281e-06
-4.7139156e-03
-9.8913671e-03
-1.5298694e-02
-2.0660663e-02
-2.5129617e-02
-2.9825937e-02
-3.5289887e-02
-3.9888317e-02
-4.2669013e-02
-4.4228204e-02
-4.6184421e-02
-4.8500636e-02
-5.0319937e-02
-5.1689204e-02
-5.2762023e-02
-5.3891978e-02
-5.4101348e-02
-5.3053697e-02
-5.1252158e-02
-4.7591520e-02
-4.1076147e-02
-3.0281432e-02
-1.6877331e-02
-6.0285469e-03
1.4907600e-03
8.3494646e-03
1.5756930e-02
2.2830243e-02
2.9116108e-02
3.4737836e-02
3.8667064e-02
4.0739941e-02
4.1257534e-02
4.1017553e-02
4.1040605e-02
3.9998581e-02
3.8116389e-02
3.6568627e-02
3.5304839e-02
3.5097754e-02
3.4494770e-02
3.1727642e-02
2.7360100e-02
2.2699082e-02
1.8001187e-02
1.2769479e-02
7.6206892e-03
2.3136043e-03
-2.8273583e-03
-6.6753370e-03
-9.6735901e-03
-1.1895246e-02
-1.3535051e-02
-1.4207568e-02
-1.2757476e-02
-1.0589897e-02
-8.7146252e-03
-7.2868150e-03
-6.6374587e-03
-5.8659892e-03
-4.5692528e-03
-2.6107249e-03
-9.8067469e-04
2.8479022e-04
2.4021376e-03
4.7352870e-03
7.2704930e-03
9.6287295e-03
1.1088131e-02
1.2222102e-02
1.3369655e-02
1.4278250e-02
1.4589778e-02
1.5617479e-02
1.7920572e-02
2.0469180e-02
2.2920673e-02
2.3706510e-02
2.2669237e-02
2.1200426e-02
1.8832340e-02
1.5173239e-02
9.7799245e-03
3.6321328e-03
-1.6181558e-03
-6.2075226e-03
-9.9544900e-03
-1.2907316e-02
-1.4448353e-02
-1.4377099e-02
-1.4260979e-02
-1.4090738e-02
-1.3865006e-02
-1.3873653e-02
-1.4287359e-02
-1.5567796e-02
-1.7064829e-02
-1.8579804e-02
-1.9701306e-02
-1.9989913e-02
-1.9357722e-02
-1.6923339e-02
-1.3573616e-02
-1.0304726e-02
-7.0204242e-03
-3.7062951e-03
6.2552750e-05
3.8827777e-03
8.3836118e-03
1.4080252e-02
2.0231195e-02
2.6777774e-02
3.2270149e-02
3.6679514e-02
4.1604064e-02
4.5907043e-02
4.7750514e-02
4.6480791e-02
4.2525606e-02
3.5560480e-02
2.4666565e-02
1.0698090e-02
-5.0707979e-03
-2.0391579e-02
-3.2978114e-02
-4.3006642e-02
-5.1081837e-02
-5.7538506e-02
-6.2518361e-02
-6.6634564e-02
-7.0123164e-02
-7.2035247e-02
-7.3539403e-02
-7.5966593e-02
-7.9570340e-02
-8.4210508e-02
-8.9095930e-02
-9.5105695e-02
-1.0151388e-01
-1.0601086e-01
-1.0738902e-01
-1.0533141e-01
-1.0106276e-01
-9.3226564e-02
-7.8719363e-02
-5.5904781e-02
-2.3611962e-02
1.2640185e-02
4.3139459e-02
6.5517953e-02
8.2119392e-02
9.3506894e-02
9.9535469e-02
1.0272668e-01
1.0459331e-01
1.0398145e-01
1.0003956e-01
9.2373805e-02
8.2830323e-02
7.2680866e-02
6.1507346e-02
4.9595880e-02
3.7031166e-02
2.4778118e-02
1.4345448e-02
6.3814894e-03
3.7819679e-04
-4.7695441e-03
-8.6240058e-03
-1.0409712e-02
-9.2467701e-03
-4.1984368e-03
2.6221608e-03
8.2719457e-03
1.1428258e-02
1.3013317e-02
1.5053190e-02
1.7637041e-02
2.0247200e-02
2.1965759e-02
2.3258622e-02
2.5132980e-02
2.7082268e-02
3.0313720e-02
3.5482844e-02
4.2002000e-02
4.9017267e-02
5.4726473e-02
5.8546151e-02
6.0946516e-02
6.2569961e-02
6.2129358e-02
5.8014652e-02
5.1191031e-02
4.1595845e-02
2.8648294e-02
1.1646563e-02
-8.3299267e-03
-2.5462108e-02
-3.6955109e-02
-4.4065514e-02
-4.7752677e-02
-4.8795489e-02
-4.7626605e-02
-4.4816883e-02
-4.0420681e-02
-3.5447313e-02
-3.0785369e-02
-2.5959189e-02
-2.1601982e-02
-1.7251929e-02
-1.2587610e-02
-9.1593228e-03
-6.6266470e-03
-4.7298734e-03
-3.7082544e-03
-3.6276037e-03
-5.3875577e-03
-8.1758972e-03
-1.1435239e-02
-1.4798379e-02
-1.7969040e-02
-2.1522871e-02
-2.4376499e-02
-2.6514411e-02
-2.8130235e-02
-2.8361367e-02
-2.7442895e-02
-2.4938982e-02
-2.0823982e-02
-1.6050338e-02
-1.1452125e-02
-7.6609108e-03
-4.3935575e-03
-1.8343052e-03
2.0109225e-04
2.2595203e-03
3.5169288e-03
3.2817327e-03
1.9042794e-03
4.7379449e-04
-1.1220082e-03
-3.8153896e-03
-6.4554380e-03
-7.7909782e-03
-7.3942235e-03
-4.5958506e-03
-2.2050940e-04
3.6591909e-03
5.5540208e-03
5.6764234e-03
5.0425834e-03
4.0432025e-03
2.5923963e-03
5.9863102e-04
-1.0395866e-03
-2.1957516e-03
-3.7166862e-03
-5.6867291e-03
-8.2095441e-03
-1.0635051e-02
-1.2404656e-02
-1.3858508e-02
-1.5583355e-02
-1.7548995e-02
-1.8380183e-02
-1.8462796e-02
-1.8074341e-02
-1.6144399e-02
-1.3668958e-02
-1.0695049e-02
-6.2786687e-03
-6.8119331e-04
5.0566352e-03
9.7731432e-03
1.4901504e-02
2.1437607e-02
2.7994724e-02
3.3690326e-02
3.7602165e-02
3.9931917e-02
4.0908547e-02
4.0518982e-02
4.0336438e-02
4.0207366e-02
3.9270731e-02
3.7590464e-02
3.5521487e-02
3.4327901e-02
3.4004012e-02
3.3657160e-02
3.2954145e-02
3.1788382e-02
2.9663643e-02
2.5077916e-02
1.7744108e-02
7.0717349e-03
-6.4173086e-03
-1.9134541e-02
-3.0171186e-02
-3.9407909e-02
-4.5209581e-02
-4.7421760e-02
-4.7473205e-02
-4.7043193e-02
-4.6078683e-02
-4.4917899e-02
-4.4177130e-02
-4.2353772e-02
-3.9140866e-02
-3.5506168e-02
-3.1959563e-02
-2.8007087e-02
-2.2521165e-02
-1.5870633e-02
-8.6848778e-03
-2.0786420e-03
3.3427727e-03
7.7614562e-03
1.0820742e-02
1.3434982e-02
1.5561251e-02
1.7580793e-02
2.0428164e-02
2.2312002e-02
2.2719340e-02
2.1667203e-02
1.7992002e-02
1.2593949e-02
6.9191519e-03
1.7639469e-03
-2.7493809e-03
-6.6708141e-03
-9.9734946e-03
-1.3558370e-02
-1.6867039e-02
-1.9631412e-02
-2.2563653e-02
-2.5280098e-02
-2.7210383e-02
-2.8050028e-02
-2.8857871e-02
-2.9415795e-02
-2.9028979e-02
-2.8756417e-02
-2.7585866e-02
-2.4103892e-02
-1.8916347e-02
-1.3347586e-02
-8.0375257e-03
-2.4537654e-03
2.8138551e-03
7.6181090e-03
1.2269611e-02
1.6379821e-02
2.0581349e-02
2.4749914e-02
2.8953244e-02
3.3762471e-02
3.8564143e-02
4.3566676e-02
4.9260128e-02
5.4795433e-02
5.8382461e-02
5.9031114e-02
5.8268436e-02
5.7035407e-02
5.4419487e-02
4.9346886e-02
4.1518096e-02
3.1767908e-02
1.9341390e-02
4.9053720e-03
-8.4881231e-03
-1.9824174e-02
-2.8161361e-02
-3.3368120e-02
-3.6294336e-02
-3.7436550e-02
-3.7959724e-02
-3.8104490e-02
-3.8286191e-02
-3.8565732e-02
-3.7965600e-02
-3.6652572e-02
-3.5148659e-02
-3.3742089e-02
-3.2194728e-02
-3.0790724e-02
-3.0406130e-02
-3.0705156e-02
-3.0987876e-02
-3.0094886e-02
-2.7127586e-02
-2.2325654e-02
-1.5995846e-02
-8.0263714e-03
1.9478711e-03
1.1812408e-02
1.9708681e-02
2.6407044e-02
3.1416710e-02
3.5205321e-02
3.8567917e-02
4.0992579e-02
4.2152305e-02
4.0520925e-02
3.6406510e-02
3.1446852e-02
2.6395441e-02
2.1614299e-02
1.5846045e-02
9.5359285e-03
3.8955216e-03
-1.0301270e-03
-4.4163456e-03
-6.9206655e-03
-9.1590597e-03
-1.0954765e-02
-1.1987325e-02
-1.1571173e-02
-1.1066375e-02
-1.1260407e-02
-1.2523906e-02
-1.4808963e-02
-1.6239963e-02
-1.6822707e-02
-1.7046868e-02
-1.6806261e-02
-1.5837001e-02
-1.3914498e-02
-1.1711976e-02
-9.2943773e-03
-7.3972995e-03
-5.6847490e-03
-3.0842877e-03
-1.2700228e-03
7.2589733e-05
2.8899692e-03
6.9836958e-03
1.1453724e-02
1.5261488e-02
1.7998713e-02
1.9013760e-02
1.8712774e-02
1.8500683e-02
1.7775251e-02
1.6564893e-02
1.4562366e-02
1.1335318e-02
8.4556484e-03
5.6261075e-03
1.8517271e-03
-2.8505690e-03
-6.9613304e-03
-9.7442208e-03
-1.3485920e-02
-1.7841905e-02
-2.1319942e-02
-2.4331434e-02
-2.8097508e-02
-3.3723484e-02
-3.9735087e-02
-4.4634030e-02
-4.8167140e-02
-5.0439786e-02
-5.1902422e-02
-5.1873145e-02
-5.0191381e-02
-4.6591547e-02
-3.9848241e-02
-3.0108135e-02
-1.8754434e-02
-7.8676642e-03
1.4074969e-03
9.1840750e-03
1.5100446e-02
1.9354004e-02
2.2635978e-02
2.6291940e-02
3.1291058e-02
3.6272020e-02
4.0741108e-02
4.5107037e-02
4.9461820e-02
5.4148052e-02
5.8337819e-02
6.1481495e-02
6.3610302e-02
6.5112908e-02
6.7192653e-02
6.9632803e-02
7.1051403e-02
6.9439947e-02
6.4086966e-02
5.5844801e-02
4.4327746e-02
3.1961299e-02
2.2692667e-02
1.6563121e-02
1.2665522e-02
1.1035878e-02
1.1248321e-02
1.1283903e-02
1.0280803e-02
9.0466640e-03
7.2890303e-03
5.3777373e-03
4.0745772e-03
4.2758789e-03
7.1863345e-03
1.2287497e-02
1.8499128e-02
2.4909622e-02
3.1729420e-02
3.9537071e-02
4.7668144e-02
5.5651746e-02
6.3024399e-02
7.0362208e-02
7.7768313e-02
8.4861018e-02
9.1700391e-02
9.6468762e-02
9.9013511e-02
9.9735628e-02
9.7496017e-02
9.2963673e-02
8.7092448e-02
8.1358969e-02
7.7225640e-02
7.4305299e-02
7.1134637e-02
6.5862486e-02
5.8902264e-02
5.0154016e-02
3.8556690e-02
2.5119034e-02
9.6593593e-03
-7.1157428e-03
-2.2151591e-02
-3.4467542e-02
-4.4581649e-02
-5.3080806e-02
-6.0265455e-02
-6.5787085e-02
-6.9859210e-02
-7.3705343e-02
-7.8225365e-02
-8.2387755e-02
-8.4914387e-02
-8.5618095e-02
-8.4460984e-02
-8.2436353e-02
-8.0411256e-02
-7.7821924e-02
-7.3841670e-02
-6.8540633e-02
-6.3156575e-02
-5.7747575e-02
-5.1809189e-02
-4.5316378e-02
-3.8881045e-02
-3.4588505e-02
-3.3171935e-02
-3.4134233e-02
-3.6331656e-02
-3.8044459e-02
-3.9521636e-02
-4.0782528e-02
-4.1003091e-02
-4.0128668e-02
-3.8828936e-02
-3.8882212e-02
-4.0093488e-02
-4.1913454e-02
-4.4665411e-02
-4.6653179e-02
-4.7584147e-02
-4.8129737e-02
-4.8263413e-02
-4.8229253e-02
-4.8097278e-02
-4.8478168e-02
-4.9023250e-02
-4.8901585e-02
-4.7992058e-02
-4.6054892e-02
-4.3697574e-02
-4.1700531e-02
-3.9819148e-02
-3.6883553e-02
-3.2631644e-02
-2.8396087e-02
-2.3778724e-02
-1.8022006e-02
-1.1122961e-02
-3.2765358e-03
3.5526463e-03
8.4617074e-03
1.1608501e-02
1.2903701e-02
1.2271152e-02
9.0177979e-03
2.2702828e-03
-8.1245122e-03
-1.9841691e-02
-3.1457762e-02
-4.3819195e-02
-5.6810073e-02
-7.0181203e-02
-8.2502596e-02
-9.1980012e-02
-9.9029461e-02
-1.0409771e-01
-1.0716747e-01
-1.0763766e-01
-1.0442908e-01
-9.7101008e-02
-8.4797504e-02
-6.6300491e-02
-3.9353961e-02
-7.3664687e-03
1.9148908e-02
3.6987952e-02
4.9051016e-02
5.7120706e-02
6.2544129e-02
6.6611736e-02
7.1173174e-02
7.5689254e-02
7.9289705e-02
8.2810551e-02
8.6045734e-02
8.8614929e-02
9.0962145e-02
9.4021877e-02
9.7353317e-02
9.9395839e-02
9.9993342e-02
9.9009697e-02
9.6505004e-02
9.3106087e-02
8.8276195e-02
8.1244635e-02
7.1254348e-02
5.8284997e-02
4.3874823e-02
3.0524237e-02
1.9657798e-02
1.0416825e-02
3.6577123e-03
4.0065824e-04
-8.8012553e-04
-7.2342816e-04
3.2036254e-04
1.7053238e-03
3.4127906e-03
5.1295865e-03
7.8413501e-03
1.1310126e-02
1.4848664e-02
1.9163753e-02
2.4758648e-02
3.1244765e-02
3.6996975e-02
4.2271371e-02
4.7167481e-02
4.9660976e-02
4.8449848e-02
4.1546638e-02
2.7157929e-02
9.3582393e-03
-3.0488916e-03
-7.0311203e-03
-6.6255242e-03
-4.4108911e-03
-4.4128841e-04
4.4607522e-03
8.2748817e-03
8.7964502e-03
6.5078570e-03
2.8011964e-03
-1.8960413e-03
-6.5068411e-03
-1.0666436e-02
-1.4266736e-02
-1.6989948e-02
-1.7959772e-02
-1.6690613e-02
-1.4878129e-02
-1.4061869e-02
-1.4419438e-02
-1.5334761e-02
-1.7522191e-02
-2.2494153e-02
-3.0055946e-02
-3.8684351e-02
-4.5308538e-02
-4.8614392e-02
-5.0677546e-02
-5.2639126e-02
-5.3810845e-02
-5.3226343e-02
-5.0523482e-02
-4.6343778e-02
-4.0170122e-02
-3.2018888e-02
-2.3810325e-02
-1.6413438e-02
-1.0659135e-02
-6.8005605e-03
-4.2207918e-03
-3.0317175e-03
-4.1057344e-03
-8.1181355e-03
-1.4027396e-02
-2.0693356e-02
-2.6671190e-02
-3.0582655e-02
-3.2136257e-02
-3.0288584e-02
-2.5334446e-02
-1.9320770e-02
-1.3232260e-02
-7.8799577e-03
-3.8414232e-03
-1.3037593e-03
4.8152813e-04
2.9703505e-03
5.4877615e-03
7.0394438e-03
7.5817575e-03
7.5289931e-03
7.8223841e-03
9.1308174e-03
1.0994986e-02
1.2545962e-02
1.4029078e-02
1.5727061e-02
1.7718665e-02
1.9595430e-02
2.0648760e-02
2.1636607e-02
2.2872901e-02
2.4297884e-02
2.6433878e-02
2.8064233e-02
2.8673836e-02
2.8450873e-02
2.6127594e-02
2.1873434e-02
1.6689470e-02
1.1814215e-02
8.6213792e-03
6.7971657e-03
5.9737054e-03
6.4153962e-03
9.0066868e-03
1.4244193e-02
2.1202439e-02
2.8349541e-02
3.4125423e-02
3.9114793e-02
4.4100378e-02
4.8143740e-02
5.1038675e-02
5.2901065e-02
5.4092002e-02
5.4297718e-02
5.1212171e-02
4.3719884e-02
3.2981031e-02
2.0771367e-02
7.5670551e-03
-7.9555130e-03
-2.6193777e-02
-4.6159910e-02
-6.7501874e-02
-8.9785163e-02
-1.0962706e-01
-1.2239478e-01
-1.2655623e-01
-1.2229759e-01
-1.1001930e-01
-9.1822367e-02
-7.1607187e-02
-5.3576723e-02
-3.9537230e-02
-3.0230657e-02
-2.6115967e-02
-2.4801962e-02
-2.3976875e-02
-2.2509144e-02
-1.8852680e-02
-1.2132615e-02
-2.2540997e-03
8.6041280e-03
1.7776085e-02
2.4861363e-02
3.0909621e-02
3.6820288e-02
4.1291684e-02
4.3181850e-02
4.1648678e-02
3.5480698e-02
2.5946197e-02
1.5120331e-02
4.9425652e-03
-2.5747751e-03
-5.1039325e-03
-9.8498035e-04
8.3656336e-03
2.0750737e-02
3.2170803e-02
3.7917199e-02
3.7356486e-02
3.2720471e-02
2.7207456e-02
2.2579424e-02
1.9556273e-02
1.9461679e-02
2.1074819e-02
2.0903552e-02
1.6609910e-02
8.2012579e-03
-2.4757002e-03
-1.3737493e-02
-2.4762861e-02
-3.5271457e-02
-4.4298470e-02
-5.0092064e-02
-5.1301149e-02
-4.7293624e-02
-3.9486977e-02
-2.9006628e-02
-1.6045925e-02
-2.4631912e-03
1.0319485e-02
2.2478800e-02
3.4605030e-02
4.5397529e-02
5.1752175e-02
5.2221626e-02
4.6581306e-02
3.6449896e-02
2.5606312e-02
1.7054780e-02
1.1585197e-02
7.5586197e-03
3.8199531e-03
-1.2811616e-04
-5.6744646e-03
-1.3209561e-02
-2.1563690e-02
-2.7829986e-02
-2.9055928e-02
-2.4848880e-02
-1.6336140e-02
-4.9756397e-03
8.4324205e-03
2.2525539e-02
3.4320104e-02
4.2095182e-02
4.5868446e-02
4.7195145e-02
4.6549829e-02
4.2483145e-02
3.4945747e-02
2.4043848e-02
1.0020133e-02
-6.9982304e-03
-2.5621417e-02
-4.1854771e-02
-5.3911134e-02
-6.1424104e-02
-6.4437436e-02
-6.4434042e-02
-6.2518714e-02
-5.9280778e-02
-5.4416315e-02
-4.8262258e-02
-4.1807295e-02
-3.5158446e-02
-2.8256847e-02
-2.0780517e-02
-1.3143753e-02
-6.2664255e-03
-4.6969204e-05
6.0561513e-03
1.2555130e-02
1.9007246e-02
2.4054585e-02
2.6782410e-02
2.6143711e-02
2.3161546e-02
2.0658468e-02
1.8815504e-02
1.5979837e-02
1.1459518e-02
6.5763992e-03
2.5003329e-03
-1.0853585e-03
-4.1735883e-03
-6.7564664e-03
-9.5245553e-03
-1.2658478e-02
-1.5356576e-02
-1.7519423e-02
-2.0209849e-02
-2.3450088e-02
-2.6469776e-02
-2.8331370e-02
-2.8556269e-02
-2.8423592e-02
-2.8045856e-02
-2.6780737e-02
-2.4970679e-02
-2.2578584e-02
-1.9679248e-02
-1.5980774e-02
-1.0674063e-02
-3.5768868e-03
3.9776210e-03
1.0513491e-02
1.6451517e-02
2.1908884e-02
2.6361595e-02
3.0059523e-02
3.3226390e-02
3.5755404e-02
3.7461558e-02
3.8404510e-02
3.8306841e-02
3.6856661e-02
3.4291473e-02
3.0300593e-02
2.4512587e-02
1.7267204e-02
9.1544750e-03
1.0873176e-03
-6.8046810e-03
-1.4301435e-02
-2.0342582e-02
-2.4107773e-02
-2.4701102e-02
-2.2174290e-02
-1.7810549e-02
-1.3954403e-02
-1.1982732e-02
-1.0366018e-02
-8.1245848e-03
-5.8880251e-03
-3.9752693e-03
-2.4228580e-03
-8.8013986e-04
-1.3469850e-04
-4.7070327e-04
-1.0880638e-04
1.5024630e-03
4.2554100e-03
7.8973191e-03
1.2265884e-02
1.7810235e-02
2.3842821e-02
2.9612912e-02
3.4938051e-02
3.9565706e-02
4.2627099e-02
4.2731774e-02
3.9282691e-02
3.1045940e-02
1.9476765e-02
9.1754084e-03
1.4642562e-03
-4.4179643e-03
-8.9648199e-03
-1.2965574e-02
-1.8253865e-02
-2.5241432e-02
-3.2346384e-02
-3.9799012e-02
-4.7073268e-02
-5.2984684e-02
-5.7949469e-02
-6.1745419e-02
-6.4847046e-02
-6.8215622e-02
-7.1520292e-02
-7.3626488e-02
-7.3705785e-02
-7.2206418e-02
-6.8436108e-02
-6.1157545e-02
-5.0182834e-02
-3.4417737e-02
-1.1724041e-02
1.5039955e-02
3.7159011e-02
5.2094114e-02
6.2892369e-02
7.0086321e-02
7.4407653e-02
7.7076753e-02
7.8388978e-02
7.7985287e-02
7.5726848e-02
7.3423780e-02
7.1672565e-02
6.9688155e-02
6.7818337e-02
6.6621039e-02
6.6762941e-02
6.8168625e-02
7.0671870e-02
7.4219540e-02
7.7224166e-02
7.7966294e-02
7.5960374e-02
7.1575149e-02
6.4090768e-02
5.1003687e-02
3.3874421e-02
1.8190746e-02
6.1612011e-03
-2.6085561e-03
-8.8451971e-03
-1.4031385e-02
-1.9609352e-02
-2.4827531e-02
-2.8708762e-02
-3.3528960e-02
-4.0611949e-02
-4.8519675e-02
-5.6890102e-02
-6.6599756e-02
-7.6945841e-02
-8.5546364e-02
-9.1910016e-02
-9.5725333e-02
-9.5167558e-02
-8.9550133e-02
-7.9360959e-02
-6.7235116e-02
-5.4953873e-02
-4.1207359e-02
-2.5560751e-02
-8.9683561e-03
7.2346961e-03
2.2785906e-02
3.7962776e-02
5.0160920e-02
5.6543311e-02
5.6092267e-02
4.9176481e-02
3.8643224e-02
2.8081669e-02
2.0890033e-02
1.8561522e-02
1.9961646e-02
2.2507306e-02
2.4042037e-02
2.5058323e-02
2.5127639e-02
2.3125537e-02
1.8779775e-02
1.2280701e-02
5.8850642e-03
8.3633203e-04
-2.5200337e-03
-4.2146887e-03
-6.4817962e-03
-1.0704583e-02
-1.6682426e-02
-2.4276505e-02
-3.3360528e-02
-4.1520142e-02
-4.4511097e-02
-4.1040618e-02
-3.1143614e-02
-1.6253426e-02
-3.5906871e-04
1.3109688e-02
2.1107157e-02
2.2852043e-02
1.9524992e-02
1.1643533e-02
1.0293263e-03
-8.9557769e-03
-1.4790649e-02
-1.5683200e-02
-1.4045642e-02
-1.1166841e-02
-8.0119682e-03
-4.6989718e-03
-5.8269572e-04
4.9721893e-03
1.3674298e-02
2.4174679e-02
3.3963743e-02
4.2388050e-02
4.9334382e-02
5.4686449e-02
5.7204549e-02
5.7462642e-02
5.7140676e-02
5.5759797e-02
5.2594709e-02
4.7789528e-02
4.1843078e-02
3.4226341e-02
2.5366479e-02
1.7157929e-02
9.9646568e-03
4.8661219e-03
3.9806510e-03
7.5990392e-03
1.2669679e-02
1.4962079e-02
1.3184096e-02
6.9183736e-03
-3.2683754e-03
-1.6179355e-02
-3.1726391e-02
-4.7654938e-02
-6.1744824e-02
-7.3274584e-02
-8.1944069e-02
-8.8117305e-02
-9.0953449e-02
-9.0664124e-02
-8.8229771e-02
-8.4173785e-02
-8.0288781e-02
-7.6477212e-02
-7.1056666e-02
-6.2359052e-02
-4.9391310e-02
-3.3314322e-02
-1.4752328e-02
5.6274958e-03
2.5475655e-02
4.1601451e-02
5.0837366e-02
5.1480568e-02
4.3840372e-02
3.1003429e-02
1.6272507e-02
2.5726481e-03
-6.7818882e-03
-1.1452490e-02
-1.1471557e-02
-6.7100427e-03
8.8459885e-04
9.9976105e-03
1.8689607e-02
2.5836702e-02
3.2287744e-02
3.7231733e-02
4.0112791e-02
4.1720114e-02
4.2707932e-02
4.3547401e-02
4.4381946e-02
4.4441538e-02
4.3194373e-02
4.2260107e-02
4.3279640e-02
4.5849474e-02
4.8235609e-02
4.7672437e-02
4.1673526e-02
2.9614555e-02
1.2947068e-02
-4.7210718e-03
-2.0784748e-02
-3.4596630e-02
-4.5966896e-02
-5.5042731e-02
-6.1194781e-02
-6.4679934e-02
-6.5991384e-02
-6.4814656e-02
-6.1053894e-02
-5.4446261e-02
-4.5852584e-02
-3.5711262e-02
-2.3154482e-02
-8.1077741e-03
8.9337190e-03
2.6235572e-02
4.1785662e-02
5.4378796e-02
6.3209836e-02
6.8150102e-02
6.8115522e-02
6.1753050e-02
5.0302875e-02
3.7216877e-02
2.3868064e-02
8.8933185e-03
-7.5823413e-03
-2.3944827e-02
-3.9268264e-02
-5.3530734e-02
-6.7345858e-02
-7.9910894e-02
-9.0129715e-02
-9.8284220e-02
-1.0429563e-01
-1.0762276e-01
-1.0735441e-01
-1.0343920e-01
-9.6858118e-02
-8.8390485e-02
-7.8366903e-02
-6.6439936e-02
-5.3536541e-02
-4.0062615e-02
-2.4985510e-02
-7.9746289e-03
1.3092711e-02
3.6221660e-02
5.4216030e-02
6.4435494e-02
6.7577729e-02
6.5812682e-02
6.1749147e-02
5.6044194e-02
4.9611036e-02
4.3612336e-02
3.8625914e-02
3.3861988e-02
2.9241622e-02
2.6081296e-02
2.3328673e-02
1.9995736e-02
1.6665149e-02
1.3745195e-02
1.1343381e-02
8.7755676e-03
5.9858729e-03
3.2624737e-03
7.1709089e-04
-1.2685528e-03
-2.6198005e-03
-2.3362335e-03
-1.1302618e-03
-6.1754617e-04
9.2594152e-06
3.3055774e-04
-3.8095651e-04
-1.3066181e-03
-1.9703314e-03
-2.4558409e-03
-2.7526811e-03
-2.7578133e-03
-2.7958191e-03
-2.1974156e-03
1.3550613e-04
3.3080251e-03
7.1261080e-03
1.2774985e-02
2.0965988e-02
3.2457359e-02
4.6691376e-02
6.2036911e-02
7.6035798e-02
8.5466998e-02
8.7696185e-02
8.0693162e-02
6.2876645e-02
3.4830951e-02
2.4835468e-03
-2.7643971e-02
-5.3219405e-02
-7.3651705e-02
-8.9739707e-02
-1.0143247e-01
-1.0789142e-01
-1.0927969e-01
-1.0488730e-01
-9.5363810e-02
-8.2014602e-02
-6.5535540e-02
-4.8262864e-02
-3.2791319e-02
-2.2103225e-02
-1.8301669e-02
-2.1078866e-02
-2.9766965e-02
-4.2628473e-02
-5.6752945e-02
-6.8983927e-02
-7.6791372e-02
-7.8090430e-02
-6.9915673e-02
-5.3577956e-02
-3.4343437e-02
-1.4582283e-02
5.2282861e-03
2.4394777e-02
4.1851568e-02
5.7715914e-02
7.2940862e-02
8.7694108e-02
1.0226889e-01
1.1643898e-01
1.3069664e-01
1.4581933e-01
1.6089104e-01
1.7412494e-01
1.8439820e-01
1.9313499e-01
2.0109529e-01
2.0683924e-01
2.0905385e-01
2.0514885e-01
1.9300182e-01
1.7140441e-01
1.3858183e-01
9.2150010e-02
3.7810539e-02
-9.4298696e-03
-4.3800819e-02
-6.8238653e-02
-8.5881111e-02
-9.9547546e-02
-1.0952021e-01
-1.1627536e-01
-1.2091934e-01
-1.2340192e-01
-1.2415924e-01
-1.2399575e-01
-1.2422795e-01
-1.2620025e-01
-1.2931059e-01
-1.3299460e-01
-1.3628646e-01
-1.3848929e-01
-1.3857025e-01
-1.3273465e-01
-1.1931368e-01
-9.8666724e-02
-7.0872467e-02
-3.6866971e-02
1.8537267e-03
3.9349867e-02
6.7198922e-02
8.1920687e-02
8.4947859e-02
7.9772333e-02
6.9818512e-02
5.7976767e-02
4.5897118e-02
3.5300598e-02
2.8293139e-02
2.5029334e-02
2.6044579e-02
3.2081304e-02
4.2405927e-02
5.5338487e-02
6.9133563e-02
8.2699177e-02
9.3135258e-02
9.8002429e-02
9.7814250e-02
9.2989007e-02
8.3542531e-02
7.0315419e-02
5.4009425e-02
3.4485242e-02
1.3990752e-02
-2.8271097e-03
-1.5191651e-02
-2.5076914e-02
-3.2463830e-02
-3.7216165e-02
-3.9984755e-02
-4.0877835e-02
-3.9327153e-02
-3.6258511e-02
-3.4189742e-02
-3.3762036e-02
-3.4881153e-02
-3.7683023e-02
-4.1123315e-02
-4.4555367e-02
-4.7633962e-02
-4.9829117e-02
-5.0398731e-02
-4.9396975e-02
-4.8114088e-02
-4.5779037e-02
-4.1075045e-02
-3.3988203e-02
-2.5485917e-02
-1.7202416e-02
-8.8971308e-03
-1.5464313e-04
8.3420428e-03
1.5887922e-02
2.1552199e-02
2.5509680e-02
2.7810511e-02
2.8343247e-02
2.8166790e-02
2.6638404e-02
2.2873541e-02
1.7322324e-02
1.0841211e-02
3.8717676e-03
-4.5987311e-03
-1.4674073e-02
-2.5433577e-02
-3.6076482e-02
-4.6347246e-02
-5.5453106e-02
-6.2369097e-02
-6.7889760e-02
-7.1941612e-02
-7.3643163e-02
-7.3522577e-02
-7.3172967e-02
-7.4292758e-02
-7.6478678e-02
-7.9014676e-02
-8.1635295e-02
-8.3841135e-02
-8.6208871e-02
-8.7708786e-02
-8.7405933e-02
-8.6093306e-02
-8.3650930e-02
-7.9963853e-02
-7.4424636e-02
-6.6821836e-02
-5.7522949e-02
-4.6680396e-02
-3.6040315e-02
-2.5683815e-02
-1.4553381e-02
-3.2225102e-03
7.3853533e-03
1.6072778e-02
2.3203356e-02
2.9721702e-02
3.6303924e-02
4.3143624e-02
4.8442453e-02
5.1221660e-02
5.1265792e-02
4.8822791e-02
4.5306304e-02
4.1342825e-02
3.7763296e-02
3.5304551e-02
3.3903932e-02
3.3738627e-02
3.4030399e-02
3.3902401e-02
3.2763764e-02
3.1086258e-02
3.0697885e-02
3.1005700e-02
3.1014795e-02
3.0775301e-02
3.0144757e-02
2.9642809e-02
2.9526345e-02
2.9964889e-02
3.0351405e-02
3.0544817e-02
3.1800581e-02
3.3948717e-02
3.6359881e-02
3.8614923e-02
4.0769884e-02
4.2731019e-02
4.3007812e-02
4.2113690e-02
4.0906202e-02
3.9545502e-02
3.9262223e-02
3.9407840e-02
3.9259674e-02
3.8428372e-02
3.6479232e-02
3.3894595e-02
2.9486051e-02
2.2877065e-02
1.5367656e-02
8.3647195e-03
3.2098912e-03
4.7430218e-04
1.1773969e-03
5.9437905e-03
1.3202556e-02
2.0072830e-02
2.3980704e-02
2.4828474e-02
2.3989571e-02
2.1944499e-02
1.9016025e-02
1.4819844e-02
1.0250044e-02
7.2551599e-03
6.1028929e-03
5.5836420e-03
4.1434640e-03
2.6568196e-03
2.7059123e-03
4.7879325e-03
9.4164309e-03
1.5798485e-02
2.2979817e-02
3.0588249e-02
3.7692134e-02
4.3691015e-02
4.7923587e-02
4.9843119e-02
4.8560378e-02
4.4712057e-02
4.1005258e-02
3.7424419e-02
3.2369598e-02
2.5034681e-02
1.5686213e-02
5.7112618e-03
-4.0456532e-03
-1.3525155e-02
-2.3241502e-02
-3.2628026e-02
-4.0227668e-02
-4.6443169e-02
-5.2396068e-02
-5.8734751e-02
-6.4657283e-02
-6.9208801e-02
-7.4000421e-02
-7.9796995e-02
-8.5100966e-02
-8.8231261e-02
-8.9504227e-02
-8.9508524e-02
-8.6423228e-02
-7.8950832e-02
-6.8180619e-02
-5.7539491e-02
-4.9105453e-02
-4.2512394e-02
-3.7738702e-02
-3.3787150e-02
-2.9754010e-02
-2.6189151e-02
-2.2927858e-02
-1.9374895e-02
-1.4707175e-02
-8.6624042e-03
-1.9526634e-03
5.3828271e-03
1.2336614e-02
1.8076229e-02
2.3082960e-02
2.7188863e-02
3.0485583e-02
3.2815430e-02
3.3342226e-02
3.2158750e-02
3.0071666e-02
2.7825627e-02
2.6334496e-02
2.6289609e-02
2.6785463e-02
2.7211535e-02
2.8114687e-02
2.8907986e-02
2.9247915e-02
2.8641789e-02
2.6339004e-02
2.2888537e-02
1.7724849e-02
1.0799341e-02
3.0064390e-03
-4.7236072e-03
-9.9911579e-03
-1.2331133e-02
-1.2390224e-02
-1.0177657e-02
-6.6557682e-03
-3.0834172e-03
-2.3919637e-04
2.7716364e-03
5.7386207e-03
6.9538619e-03
6.2031174e-03
2.5393629e-03
-3.0611001e-03
-7.2186215e-03
-9.1056069e-03
-9.1385400e-03
-7.9038920e-03
-4.7999306e-03
9.1980720e-04
7.7601366e-03
1.4381656e-02
1.9901649e-02
2.4751249e-02
2.9530006e-02
3.3098498e-02
3.4950030e-02
3.5277822e-02
3.5097557e-02
3.4881276e-02
3.3973469e-02
3.2461614e-02
2.9408156e-02
2.4641135e-02
1.8715259e-02
1.0580632e-02
-2.1874455e-04
-1.4469311e-02
-3.0385925e-02
-4.3042798e-02
-5.0075073e-02
-5.2019747e-02
-5.0670390e-02
-4.6494368e-02
-4.0320704e-02
-3.3833868e-02
-2.6886030e-02
-1.9939419e-02
-1.3295048e-02
-6.3276226e-03
5.3114004e-04
7.0036559e-03
1.3436303e-02
2.0176398e-02
2.7263999e-02
3.4514454e-02
4.1339542e-02
4.6368373e-02
4.9950587e-02
5.2711153e-02
5.3169001e-02
4.9772170e-02
4.0282529e-02
2.5998382e-02
1.2401393e-02
2.1126885e-03
-5.0203378e-03
-1.0124440e-02
-1.2982209e-02
-1.2898980e-02
-1.0115077e-02
-5.4099309e-03
-9.7008060e-04
3.1298087e-03
7.5111649e-03
1.1431257e-02
1.4674528e-02
1.6949956e-02
1.8852559e-02
2.0855909e-02
2.2726446e-02
2.4746233e-02
2.6335420e-02
2.6968944e-02
2.6519926e-02
2.4316211e-02
1.8859698e-02
8.1195001e-03
-5.0335151e-03
-1.4576983e-02
-1.9466085e-02
-2.1261050e-02
-2.1290770e-02
-2.0413714e-02
-1.9458602e-02
-1.9800257e-02
-2.0455533e-02
-1.9980317e-02
-1.7888638e-02
-1.3867955e-02
-8.1353947e-03
-9.9887002e-04
5.9033315e-03
1.1394495e-02
1.5864212e-02
1.9495479e-02
2.2076133e-02
2.2648924e-02
2.0490723e-02
1.5949670e-02
1.0074872e-02
3.7852141e-03
-2.2789491e-03
-6.5941013e-03
-9.4547965e-03
-1.3012460e-02
-1.8411972e-02
-2.6592448e-02
-3.5966829e-02
-4.4092470e-02
-5.0583172e-02
-5.5069127e-02
-5.7796198e-02
-5.8814599e-02
-5.8505017e-02
-5.7504856e-02
-5.5952968e-02
-5.4919537e-02
-5.4307523e-02
-5.3030369e-02
-5.0834096e-02
-4.8065240e-02
-4.4896676e-02
-4.0752825e-02
-3.4920916e-02
-2.6987349e-02
-1.7326404e-02
-6.5973679e-03
5.1286988e-03
1.6701190e-02
2.6751464e-02
3.5105008e-02
4.0836798e-02
4.3234745e-02
4.3069338e-02
4.2422944e-02
4.2768404e-02
4.3043227e-02
4.2815000e-02
4.2421542e-02
4.2176663e-02
4.2779478e-02
4.3333421e-02
4.3805577e-02
4.5041876e-02
4.7100553e-02
4.9881606e-02
5.1988476e-02
5.2743055e-02
5.2394457e-02
5.1036086e-02
4.8301815e-02
4.2650568e-02
3.4425492e-02
2.5191927e-02
1.5774223e-02
6.0237205e-03
-4.8242456e-03
-1.5137502e-02
-2.4185639e-02
-3.3203697e-02
-4.1995970e-02
-5.0250715e-02
-5.8212013e-02
-6.6469263e-02
-7.4692308e-02
-8.2954038e-02
-9.2268691e-02
-1.0090666e-01
-1.0604939e-01
-1.0573439e-01
-1.0079689e-01
-9.4747915e-02
-8.7379275e-02
-7.5296801e-02
-5.4931327e-02
-2.4326834e-02
1.3884237e-02
5.2413011e-02
8.2290334e-02
9.9763403e-02
1.0730145e-01
1.0893342e-01
1.0877194e-01
1.0878285e-01
1.0864184e-01
1.0734066e-01
1.0325531e-01
9.4924430e-02
8.0229009e-02
5.8400206e-02
3.1899747e-02
5.0453561e-03
-1.7111446e-02
-3.2454655e-02
-4.0619337e-02
-4.1450424e-02
-3.6488448e-02
-2.6880620e-02
-1.5401857e-02
-5.5171566e-03
1.1538197e-03
2.9545224e-03
1.3703191e-03
-2.0628879e-04
-9.9487202e-04
-2.0097254e-03
-4.1255435e-03
-7.8623152e-03
-1.5769298e-02
-2.9442181e-02
-4.8172777e-02
-7.1518965e-02
-9.6080739e-02
-1.1688173e-01
-1.3129305e-01
-1.3790393e-01
-1.3634664e-01
-1.2750627e-01
-1.1321822e-01
-9.4811803e-02
-7.2771160e-02
-4.7449773e-02
-1.9148630e-02
1.0069384e-02
3.9373959e-02
7.0436778e-02
1.0477034e-01
1.4205103e-01
1.7711384e-01
2.0489033e-01
2.2336642e-01
2.3067944e-01
2.2645118e-01
2.0993579e-01
1.8012235e-01
1.3910734e-01
9.1352521e-02
4.2755591e-02
-1.0978098e-03
-3.5695027e-02
-5.8439904e-02
-6.9554800e-02
-6.9382815e-02
-5.9404008e-02
-4.3029722e-02
-2.5342421e-02
-1.2209219e-02
-5.6581563e-03
-4.9092104e-03
-9.2729800e-03
-1.9501394e-02
-3.7692977e-02
-6.0099147e-02
-7.8068885e-02
-8.7873914e-02
-9.1162761e-02
-9.0195710e-02
-8.6344989e-02
-8.1310534e-02
-7.5348558e-02
-6.8861278e-02
-6.4340246e-02
-6.1883770e-02
-6.0403199e-02
-5.9006620e-02
-5.7311769e-02
-5.6292566e-02
-5.5897389e-02
-5.5694015e-02
-5.4916681e-02
-5.3291833e-02
-5.1424364e-02
-4.8101978e-02
-4.2788738e-02
-3.5961419e-02
-2.6593644e-02
-1.4046838e-02
5.7705836e-05
1.2307130e-02
2.1325386e-02
2.7303366e-02
2.9452330e-02
2.8845047e-02
2.6405575e-02
2.2175706e-02
1.7036799e-02
1.0752452e-02
4.0784812e-03
-1.1247509e-03
-3.6251317e-03
-3.4087138e-03
-1.6384664e-03
1.7573542e-03
7.2897120e-03
1.4723298e-02
2.2614645e-02
2.9434786e-02
3.5341642e-02
4.0408737e-02
4.4182513e-02
4.4961317e-02
4.0257460e-02
3.1285034e-02
2.1283663e-02
1.1050756e-02
4.0285717e-04
-1.0389030e-02
-2.0879096e-02
-3.0554365e-02
-3.7703712e-02
-4.0533385e-02
-3.9232964e-02
-3.4299851e-02
-2.6385376e-02
-1.6071750e-02
-3.3651878e-03
1.1077751e-02
2.5697603e-02
3.8923631e-02
5.0915058e-02
6.0981278e-02
6.6573599e-02
6.7394476e-02
6.3640057e-02
5.5377250e-02
4.2999451e-02
2.5305742e-02
4.2756144e-03
-1.4948127e-02
-2.9890985e-02
-4.0455533e-02
-4.7506444e-02
-5.2348870e-02
-5.6054056e-02
-5.8812711e-02
-6.1005842e-02
-6.3446482e-02
-6.6503140e-02
-7.0509580e-02
-7.3823065e-02
-7.5728157e-02
-7.7336938e-02
-7.8258033e-02
-7.8678415e-02
-7.7340251e-02
-7.2800687e-02
-6.6531965e-02
-5.8533677e-02
-4.7647661e-02
-3.3285644e-02
-1.4620261e-02
9.7037172e-03
3.7030249e-02
5.8969301e-02
7.2228881e-02
7.9469950e-02
8.2588894e-02
8.2486833e-02
7.9019391e-02
7.3559289e-02
6.8042751e-02
6.2872882e-02
5.8440674e-02
5.4912402e-02
5.2782633e-02
5.2673502e-02
5.4116314e-02
5.5509247e-02
5.4949503e-02
5.2088000e-02
4.7569808e-02
4.1676466e-02
3.5370798e-02
2.9444091e-02
2.4519950e-02
2.1824173e-02
2.1947345e-02
2.3901594e-02
2.5139008e-02
2.4621810e-02
2.2637226e-02
1.8990867e-02
1.4143084e-02
8.3674086e-03
2.1016260e-03
-4.2069621e-03
-1.0693075e-02
-1.6610333e-02
-2.2283848e-02
-2.8626356e-02
-3.5278036e-02
-4.1763336e-02
-4.7270451e-02
-5.1293552e-02
-5.3069041e-02
-5.2962015e-02
-5.3049647e-02
-5.3496010e-02
-5.3632430e-02
-5.2487679e-02
-4.8472528e-02
-4.0650881e-02
-3.0019063e-02
-1.9977050e-02
-1.2113416e-02
-5.7172901e-03
6.9844937e-04
8.0599799e-03
1.5254544e-02
2.2196641e-02
2.9019934e-02
3.5327541e-02
4.1456530e-02
4.7082754e-02
5.1528957e-02
5.3989773e-02
5.3959393e-02
5.1362184e-02
4.6006407e-02
3.9034009e-02
3.1609469e-02
2.3420988e-02
1.3998094e-02
3.2998287e-03
-7.3431995e-03
-1.6711875e-02
-2.4771146e-02
-3.1451259e-02
-3.6971748e-02
-4.1018478e-02
-4.3355752e-02
-4.4587946e-02
-4.5358990e-02
-4.6071281e-02
-4.5919353e-02
-4.4669788e-02
-4.3010724e-02
-4.0854644e-02
-3.8180671e-02
-3.3700542e-02
-2.7058109e-02
-2.0364853e-02
-1.4019122e-02
-7.9640776e-03
-2.4450758e-03
2.7369504e-03
7.4830377e-03
1.1992436e-02
1.6552064e-02
2.1506042e-02
2.6168897e-02
2.9402301e-02
3.1624243e-02
3.3589909e-02
3.5264609e-02
3.5739619e-02
3.4729077e-02
3.2960117e-02
3.0075677e-02
2.6163947e-02
2.2003794e-02
1.7371726e-02
1.1942227e-02
5.6539056e-03
-1.0573185e-03
-7.2178224e-03
-1.2752147e-02
-1.8937139e-02
-2.6532146e-02
-3.4330884e-02
-4.1057616e-02
-4.6002816e-02
-4.8271917e-02
-4.7719791e-02
-4.3588979e-02
-3.4501857e-02
-1.9272139e-02
2.0447517e-04
1.7510478e-02
3.0153387e-02
4.0427949e-02
4.9449453e-02
5.6938449e-02
6.2962964e-02
6.9109380e-02
7.5221644e-02
8.0077072e-02
8.3672170e-02
8.5650379e-02
8.6632892e-02
8.6697334e-02
8.5310268e-02
8.2938555e-02
7.9543920e-02
7.5602597e-02
7.1231111e-02
6.5788700e-02
5.9070449e-02
5.0053724e-02
3.8640035e-02
2.4573594e-02
5.4823185e-03
-1.6364541e-02
-3.4578963e-02
-4.7059243e-02
-5.5693410e-02
-6.1074321e-02
-6.2931650e-02
-6.3052064e-02
-6.1996496e-02
-5.8863668e-02
-5.2893336e-02
-4.4596156e-02
-3.6428337e-02
-2.7897221e-02
-1.7409108e-02
-6.0835994e-03
4.1910794e-03
1.2933993e-02
2.1445914e-02
2.9882338e-02
3.6841019e-02
4.1686797e-02
4.4487566e-02
4.4956988e-02
4.1645174e-02
3.4292032e-02
2.4895279e-02
1.4547011e-02
3.8971562e-03
-7.1023827e-03
-1.8326159e-02
-2.8561854e-02
-3.7754896e-02
-4.5284387e-02
-5.1457863e-02
-5.6646698e-02
-5.8998607e-02
-5.7679608e-02
-5.2774424e-02
-4.4731783e-02
-3.4202874e-02
-2.2580717e-02
-1.2448641e-02
-4.3271396e-03
2.7027300e-03
8.9748120e-03
1.4489730e-02
1.7979645e-02
1.8555597e-02
1.5568716e-02
8.0172632e-03
-1.9300237e-03
-1.0068421e-02
-1.4398790e-02
-1.5257636e-02
-1.2875334e-02
-7.8409432e-03
-1.4163052e-03
5.8806908e-03
1.2872124e-02
1.9032622e-02
2.5222567e-02
3.1510578e-02
3.7251247e-02
4.1352021e-02
4.3950842e-02
4.5877139e-02
4.6920041e-02
4.6589615e-02
4.3632211e-02
3.8042751e-02
3.0983967e-02
2.2383893e-02
1.2739816e-02
2.3662935e-03
-9.0199811e-03
-1.9780489e-02
-2.8036118e-02
-3.2815194e-02
-3.4736588e-02
-3.6969495e-02
-4.0989548e-02
-4.5057347e-02
-4.7424699e-02
-4.8546394e-02
-4.8871090e-02
-4.7928402e-02
-4.5795250e-02
-4.2153875e-02
-3.7553116e-02
-3.1982108e-02
-2.4919927e-02
-1.7885535e-02
-1.1568070e-02
-5.4659958e-03
9.0052166e-04
7.1667647e-03
1.1936446e-02
1.5032032e-02
1.6609416e-02
1.7629313e-02
1.8756471e-02
1.8558756e-02
1.6765373e-02
1.4114504e-02
1.1155943e-02
7.5845182e-03
3.5024130e-03
-5.6107393e-04
-6.1176876e-03
-1.4101426e-02
-2.4548159e-02
-3.7704529e-02
-5.2080805e-02
-6.5173445e-02
-7.4959255e-02
-8.0289293e-02
-8.1711731e-02
-8.0411027e-02
-7.6690888e-02
-7.0602403e-02
-6.2915956e-02
-5.3047924e-02
-3.9714421e-02
-2.4817777e-02
-8.9226526e-03
7.8109561e-03
2.1426325e-02
3.0575081e-02
3.6275931e-02
3.8937511e-02
3.9446456e-02
3.9613020e-02
4.1059233e-02
4.2705290e-02
4.3808389e-02
4.4860561e-02
4.4968173e-02
4.3277202e-02
3.9705833e-02
3.6076210e-02
3.3850954e-02
3.1618716e-02
2.8280234e-02
2.2851006e-02
1.5520543e-02
7.9248595e-03
1.0641857e-03
-4.3071935e-03
-7.9508404e-03
-8.7756927e-03
-7.4906698e-03
-6.7352343e-03
-6.9799695e-03
-8.5297722e-03
-1.1191545e-02
-1.3491732e-02
-1.4128992e-02
-1.3172282e-02
-1.2158574e-02
-1.0942606e-02
-8.9035591e-03
-6.6853341e-03
-5.2779464e-03
-5.5227120e-03
-5.4024406e-03
-2.7121835e-03
1.6398599e-03
6.0671434e-03
9.0329921e-03
1.0307438e-02
1.0781988e-02
1.0995858e-02
1.0848778e-02
9.7853674e-03
8.2493229e-03
6.5457294e-03
5.1144650e-03
4.7295429e-03
5.0870065e-03
6.2773131e-03
8.2340107e-03
1.0551774e-02
1.3047506e-02
1.4390474e-02
1.3549075e-02
1.0760437e-02
7.3297257e-03
4.5550775e-03
2.1362900e-03
5.3352282e-04
9.4757312e-04
3.2980394e-03
6.8191481e-03
1.0868553e-02
1.5310182e-02
1.9308240e-02
2.2129677e-02
2.4028838e-02
2.4471003e-02
2.2420755e-02
1.8340387e-02
1.4516283e-02
1.2145511e-02
1.0673675e-02
1.0160291e-02
9.6489039e-03
7.3792675e-03
3.7579134e-03
-8.0019009e-04
-5.6534308e-03
-9.7931989e-03
-1.3625462e-02
-1.7485511e-02
-2.0993600e-02
-2.3673508e-02
-2.6639661e-02
-3.0610635e-02
-3.4872699e-02
-3.8911607e-02
-4.1459232e-02
-4.2077126e-02
-4.0846541e-02
-3.6865637e-02
-2.9305106e-02
-1.7297661e-02
-3.5839443e-03
6.5308487e-03
1.1598536e-02
1.3006974e-02
1.2604512e-02
1.1473007e-02
1.0211884e-02
8.8310978e-03
6.1092445e-03
2.1482070e-03
-2.6633293e-03
-7.8996461e-03
-1.2207477e-02
-1.5391597e-02
-1.7005496e-02
-1.6871411e-02
-1.5925909e-02
-1.3926759e-02
-1.0532123e-02
-6.4595253e-03
-2.6905881e-03
1.2198889e-03
6.4439053e-03
1.2689779e-02
2.0069870e-02
2.8097526e-02
3.4225269e-02
3.6679914e-02
3.5137703e-02
3.0457980e-02
2.4002977e-02
1.6589368e-02
7.5536408e-03
-3.4720070e-03
-1.4771614e-02
-2.5501463e-02
-3.4928652e-02
-4.1309675e-02
-4.4022235e-02
-4.3456607e-02
-4.1551865e-02
-3.9462160e-02
-3.6410717e-02
-3.2606534e-02
-2.8257705e-02
-2.3676424e-02
-1.8538060e-02
-1.2039055e-02
-4.8651297e-03
2.6163837e-03
9.7791665e-03
1.7093220e-02
2.5637429e-02
3.3863024e-02
4.0481093e-02
4.5133589e-02
4.7937309e-02
4.9356064e-02
4.9601090e-02
4.9642913e-02
4.9088422e-02
4.7049189e-02
4.3399481e-02
3.8115129e-02
3.1982851e-02
2.4586857e-02
1.6042707e-02
7.2511413e-03
-1.9777479e-03
-1.0505125e-02
-1.7455305e-02
-2.2656193e-02
-2.5387705e-02
-2.5015698e-02
-2.0959838e-02
-1.5082535e-02
-9.6234900e-03
-4.8374066e-03
-7.5127169e-04
3.3837499e-03
7.8593869e-03
1.2619759e-02
1.7916098e-02
2.2742423e-02
2.6341872e-02
2.9609350e-02
3.4432559e-02
4.0330527e-02
4.4732685e-02
4.7316687e-02
4.8212533e-02
4.7335073e-02
4.4806356e-02
4.0479254e-02
3.5387273e-02
3.0239420e-02
2.4557216e-02
1.7179466e-02
7.3984775e-03
-4.1751430e-03
-1.5506108e-02
-2.3121966e-02
-2.7131420e-02
-2.9850368e-02
-3.1398047e-02
-3.2653628e-02
-3.3454467e-02
-3.3184928e-02
-3.2209052e-02
-2.9756508e-02
-2.6224651e-02
-2.2631366e-02
-1.9376027e-02
-1.6287879e-02
-1.2921681e-02
-8.9317914e-03
-3.2847288e-03
3.5381027e-03
1.0062989e-02
1.6140669e-02
2.1440633e-02
2.5394620e-02
2.8062715e-02
2.9797422e-02
3.0645284e-02
3.0242846e-02
2.8488026e-02
2.4624862e-02
1.8816491e-02
1.2560616e-02
5.6801510e-03
-1.4051033e-03
-7.2633446e-03
-1.1503459e-02
-1.4867048e-02
-1.8483858e-02
-2.1266745e-02
-2.2739521e-02
-2.3367343e-02
-2.2766859e-02
-2.2469675e-02
-2.2383996e-02
-2.1153611e-02
-1.8828149e-02
-1.5326910e-02
-1.2123983e-02
-9.6494650e-03
-7.5717227e-03
-6.5847858e-03
-7.2146345e-03
-9.4891209e-03
-1.1089704e-02
-1.0894177e-02
-9.6507215e-03
-7.6923145e-03
-5.6541121e-03
-3.4721200e-03
-9.4155848e-04
2.7137998e-03
8.0034306e-03
1.3288420e-02
1.7781842e-02
2.1416669e-02
2.4235898e-02
2.7202810e-02
2.9697650e-02
3.0162489e-02
2.7366882e-02
2.1583881e-02
1.4551739e-02
6.6910234e-03
-1.9713315e-03
-1.0863531e-02
-1.9126905e-02
-2.6166142e-02
-3.1524391e-02
-3.4639916e-02
-3.6458668e-02
-3.7586507e-02
-3.8306357e-02
-3.9319402e-02
-3.9180397e-02
-3.7711207e-02
-3.6248577e-02
-3.4281334e-02
-3.1978199e-02
-2.9555295e-02
-2.6510664e-02
-2.2872705e-02
-1.9044386e-02
-1.5127596e-02
-1.0594152e-02
-5.5659884e-03
-1.8882780e-04
5.3295431e-03
1.0648709e-02
1.5580773e-02
1.8752112e-02
1.9918215e-02
2.0098493e-02
1.9241725e-02
1.7739733e-02
1.6008686e-02
1.5222641e-02
1.6186877e-02
1.7216853e-02
1.7968024e-02
1.8747610e-02
1.9011997e-02
1.8477365e-02
1.6934733e-02
1.4776511e-02
1.1325518e-02
5.7936302e-03
-1.0927926e-03
-8.5080647e-03
-1.5470327e-02
-2.1786216e-02
-2.7306937e-02
-3.1253827e-02
-3.3377851e-02
-3.3782667e-02
-3.2860381e-02
-3.0251868e-02
-2.6323808e-02
-2.2498432e-02
-1.9092348e-02
-1.6259085e-02
-1.3349263e-02
-9.9378900e-03
-7.3636396e-03
-6.2199461e-03
-7.0069959e-03
-9.2247381e-03
-1.0729202e-02
-1.1156829e-02
-1.1024206e-02
-1.0720506e-02
-9.9399648e-03
-8.3173576e-03
-5.9712152e-03
-2.2617027e-03
1.9506461e-03
5.6698361e-03
9.1180857e-03
1.2657452e-02
1.6902262e-02
2.1396831e-02
2.5382257e-02
2.8282714e-02
3.0445998e-02
3.3430209e-02
3.7129992e-02
4.0666947e-02
4.3408669e-02
4.4702290e-02
4.3695502e-02
3.8308418e-02
2.8374702e-02
1.5678128e-02
1.9799401e-03
-1.0975521e-02
-2.2461009e-02
-3.1164030e-02
-3.5838263e-02
-3.6545282e-02
-3.4179767e-02
-3.0843531e-02
-2.7428849e-02
-2.3734725e-02
-2.0013346e-02
-1.6374921e-02
-1.4009495e-02
-1.3764303e-02
-1.5575441e-02
-1.8523770e-02
-2.0412338e-02
-2.1377537e-02
-2.2545817e-02
-2.3545856e-02
-2.3397003e-02
-2.1982218e-02
-1.9827584e-02
-1.6289538e-02
-1.1084343e-02
-5.5276250e-03
-1.5083572e-03
8.2429316e-04
3.3547823e-03
5.9428442e-03
7.2662073e-03
8.2601866e-03
9.3152815e-03
9.9860135e-03
1.0456407e-02
1.1488584e-02
1.3427263e-02
1.5056810e-02
1.6405444e-02
1.8134844e-02
1.9874915e-02
2.0522619e-02
1.8107513e-02
1.3076792e-02
7.3329187e-03
1.7743093e-03
-2.6981136e-03
-6.2609372e-03
-8.9863208e-03
-1.0889147e-02
-1.2113673e-02
-1.2765479e-02
-1.4083260e-02
-1.5337880e-02
-1.5388955e-02
-1.4405091e-02
-1.2858450e-02
-1.2054771e-02
-1.1672250e-02
-1.0871440e-02
-9.2415980e-03
-6.1562640e-03
-1.8883626e-03
2.9992104e-03
7.4721804e-03
1.1357493e-02
1.4920478e-02
1.7292857e-02
1.9007288e-02
2.0539558e-02
2.1723257e-02
2.2389901e-02
2.1807081e-02
2.1227840e-02
2.0976349e-02
2.0016418e-02
1.9251561e-02
1.9289736e-02
1.9117749e-02
1.7919790e-02
1.6591762e-02
1.5094570e-02
1.1938545e-02
7.3866578e-03
2.4899433e-03
-1.8820885e-03
-5.3240361e-03
-8.0117469e-03
-9.7093658e-03
-9.8169227e-03
-8.2366886e-03
-6.5877608e-03
-6.0099294e-03
-6.5290299e-03
-8.6022909e-03
-1.1283863e-02
-1.3495748e-02
-1.5791235e-02
-1.8582326e-02
-2.1875777e-02
-2.4889122e-02
-2.6701734e-02
-2.7910755e-02
-2.9284214e-02
-3.0694739e-02
-3.1356371e-02
-3.1315116e-02
-3.0898627e-02
-2.8926150e-02
-2.5480130e-02
-2.1780203e-02
-1.8388175e-02
-1.4683623e-02
-9.3730415e-03
-2.6749561e-03
4.7988656e-03
1.1786989e-02
1.7164703e-02
2.1518645e-02
2.4588752e-02
2.6850344e-02
2.9184861e-02
3.0996507e-02
3.2625484e-02
3.3928955e-02
3.4342222e-02
3.3772396e-02
3.2256276e-02
2.9649764e-02
2.4890722e-02
1.9024638e-02
1.3829867e-02
9.0194925e-03
4.4563760e-03
5.2893176e-04
-2.2850929e-03
-4.1226046e-03
-5.1429605e-03
-4.8028873e-03
-3.7219515e-03
-2.6909538e-03
-2.2691527e-03
-2.5566675e-03
-2.7446352e-03
-3.4487801e-03
-4.7565710e-03
-4.8600001e-03
-3.2694586e-03
-9.1263799e-04
1.3823999e-03
3.9285815e-03
7.3711558e-03
1.1328532e-02
1.5878901e-02
2.1086423e-02
2.6936419e-02
3.3080613e-02
3.8728631e-02
4.4269390e-02
4.9307169e-02
5.2632098e-02
5.3202930e-02
5.0796833e-02
4.5281942e-02
3.5243708e-02
2.2677152e-02
1.1999198e-02
4.2712685e-03
-1.9949888e-03
-7.9877868e-03
-1.3390566e-02
-1.7897704e-02
-2.1605236e-02
-2.4560081e-02
-2.7739858e-02
-3.1786087e-02
-3.6231153e-02
-3.9604210e-02
-4.0781607e-02
-4.0606238e-02
-4.0262682e-02
-4.0325003e-02
-4.0225469e-02
-3.9758555e-02
-3.9530546e-02
-3.8707588e-02
-3.7130757e-02
-3.4961392e-02
-3.1575437e-02
-2.6832629e-02
-2.1102970e-02
-1.5706765e-02
-1.0515276e-02
-4.9955266e-03
-5.7914320e-04
2.5908737e-03
5.4320607e-03
8.5095488e-03
1.1771967e-02
1.4646894e-02
1.7421902e-02
2.0029385e-02
2.2968153e-02
2.7228090e-02
3.2423243e-02
3.8307838e-02
4.4054792e-02
4.8483923e-02
5.1192672e-02
5.1629394e-02
5.0331434e-02
4.7925188e-02
4.4090298e-02
3.8210979e-02
2.9710928e-02
1.9726639e-02
9.4177293e-03
-5.5011701e-04
-9.0690758e-03
-1.5758707e-02
-2.0491847e-02
-2.3851425e-02
-2.6168036e-02
-2.7285129e-02
-2.8061125e-02
-2.9600983e-02
-3.3099617e-02
-3.7757144e-02
-4.1813320e-02
-4.5881969e-02
-5.0330269e-02
-5.3947568e-02
-5.5527377e-02
-5.5305593e-02
-5.3809643e-02
-5.0296439e-02
-4.4834098e-02
-3.7300199e-02
-2.6749425e-02
-1.2298780e-02
4.7453223e-03
1.9352359e-02
2.9258203e-02
3.5673299e-02
4.0542277e-02
4.5567116e-02
4.9504494e-02
5.1913659e-02
5.3482711e-02
5.3714583e-02
5.2889439e-02
5.1186964e-02
4.8455384e-02
4.5228466e-02
4.1791294e-02
3.7854890e-02
3.2988071e-02
2.7024263e-02
2.0144927e-02
1.3955489e-02
1.0261403e-02
7.6864796e-03
4.5827336e-03
1.6768957e-03
-5.3534421e-04
-2.6334694e-03
-4.8198679e-03
-6.5573259e-03
-8.3470438e-03
-1.0437807e-02
-1.2568514e-02
-1.5827329e-02
-1.9511709e-02
-2.2972364e-02
-2.7629879e-02
-3.3969708e-02
-4.2241196e-02
-5.1130512e-02
-5.7866389e-02
-6.1117075e-02
-6.0399464e-02
-5.6040268e-02
-4.8543476e-02
-3.8889044e-02
-2.8903469e-02
-1.9697083e-02
-1.1729609e-02
-4.0285939e-03
4.0015939e-03
1.3235263e-02
2.4025033e-02
3.2700966e-02
3.7979916e-02
4.1632556e-02
4.3913103e-02
4.4483109e-02
4.2680932e-02
3.8708173e-02
3.3615260e-02
2.8499223e-02
2.3782970e-02
1.8920668e-02
1.4140598e-02
9.2005991e-03
4.5251175e-03
1.1748056e-03
-1.5085972e-03
-3.2801337e-03
-4.1938009e-03
-5.6245941e-03
-7.9918859e-03
-1.1116207e-02
-1.4643455e-02
-1.8875877e-02
-2.3527498e-02
-2.7487914e-02
-3.0684716e-02
-3.2697804e-02
-3.3345342e-02
-3.2927634e-02
-3.1933253e-02
-3.1039458e-02
-2.8747830e-02
-2.3969963e-02
-1.7554300e-02
-1.1019087e-02
-5.6533228e-03
-4.3778369e-04
5.3270142e-03
1.1315836e-02
1.7771550e-02
2.3919841e-02
2.8574597e-02
3.1423277e-02
3.3202715e-02
3.3964934e-02
3.2866093e-02
3.0664862e-02
2.7808171e-02
2.4201394e-02
2.0241395e-02
1.6559319e-02
1.4139023e-02
1.2313484e-02
1.0804478e-02
1.0214063e-02
9.8905635e-03
9.3908342e-03
8.2341176e-03
6.8346124e-03
5.9292038e-03
4.9762703e-03
3.5795611e-03
1.5595356e-03
-2.4441375e-04
-1.4968514e-03
-2.6638115e-03
-3.1841215e-03
-3.1043339e-03
-2.7132105e-03
-2.3927191e-03
-1.9622073e-03
-1.1639538e-03
-1.7317931e-03
-4.3110304e-03
-7.6033009e-03
-9.7924095e-03
-1.0034438e-02
-8.8098972e-03
-6.0489372e-03
-2.6663208e-03
5.3474418e-04
3.4989275e-03
5.1916181e-03
6.0515126e-03
6.5074838e-03
6.2099127e-03
5.3299452e-03
2.6775492e-03
-1.5648258e-03
-5.7246397e-03
-9.1113273e-03
-1.1404653e-02
-1.3465028e-02
-1.5106669e-02
-1.5558491e-02
-1.4879981e-02
-1.2156889e-02
-7.3115051e-03
-4.9225804e-04
6.7782219e-03
1.1314548e-02
1.2866532e-02
1.2202827e-02
1.0258219e-02
7.4809630e-03
3.9271507e-03
1.1766270e-03
-1.2305962e-03
-4.3776518e-03
-7.8419449e-03
-1.0532828e-02
-1.2066557e-02
-1.3537484e-02
-1.4732383e-02
-1.5482818e-02
-1.5673257e-02
-1.4348031e-02
-1.2639581e-02
-1.1523706e-02
-9.9802065e-03
-6.6563790e-03
-1.9151910e-03
2.6633798e-03
8.9632141e-03
1.7082643e-02
2.2558360e-02
2.3896648e-02
2.2028238e-02
1.8938485e-02
1.6366716e-02
1.3801831e-02
1.0618192e-02
7.0424033e-03
3.2171340e-03
-1.8796747e-03
-7.9716850e-03
-1.3127979e-02
-1.6542996e-02
-1.8142053e-02
-1.8941078e-02
-1.9523898e-02
-1.9338533e-02
-1.9251710e-02
-1.9643357e-02
-2.0585534e-02
-2.1909299e-02
-2.2050889e-02
-2.0742261e-02
-1.7891793e-02
-1.3242730e-02
-7.0722755e-03
9.7976461e-06
6.1864836e-03
1.1102625e-02
1.5202910e-02
1.8770657e-02
2.1893573e-02
2.4046152e-02
2.6315649e-02
2.8484731e-02
2.9321513e-02
2.9265265e-02
2.8646205e-02
2.6962349e-02
2.2387034e-02
1.4476003e-02
4.8457527e-03
-6.2013241e-03
-1.7944621e-02
-2.8690602e-02
-3.6734880e-02
-4.0952486e-02
-4.1788892e-02
-4.0233187e-02
-3.8112751e-02
-3.6077519e-02
-3.3916305e-02
-3.2429502e-02
-3.1422254e-02
-3.0110518e-02
-2.7960769e-02
-2.5216345e-02
-2.2611072e-02
-1.9793449e-02
-1.6453367e-02
-1.2191726e-02
-7.1198111e-03
-2.9175795e-03
-5.1648539e-04
5.6807581e-05
-1.3101141e-04
1.9355133e-04
1.0342250e-03
2.7519070e-03
5.2242429e-03
7.8352864e-03
1.0029389e-02
1.1359290e-02
1.1859619e-02
1.1643931e-02
1.2586989e-02
1.5764122e-02
2.0102359e-02
2.4989832e-02
2.9845436e-02
3.4954404e-02
4.0230948e-02
4.4564721e-02
4.7865422e-02
4.9862669e-02
5.1149662e-02
5.1895239e-02
5.0749852e-02
4.8701789e-02
4.7124792e-02
4.6030480e-02
4.4680507e-02
4.2967702e-02
4.1872513e-02
4.0214211e-02
3.6457460e-02
2.9483452e-02
1.8363353e-02
3.2534537e-03
-1.4192185e-02
-2.9937123e-02
-4.1833023e-02
-4.9794438e-02
-5.3556198e-02
-5.4287358e-02
-5.3188657e-02
-5.0623823e-02
-4.6662782e-02
-4.1681905e-02
-3.6390628e-02
-3.0708282e-02
-2.5627967e-02
-2.1055821e-02
-1.5425853e-02
-9.5781221e-03
-3.7723811e-03
2.7948720e-03
9.3141356e-03
1.4365435e-02
1.7235148e-02
1.8577106e-02
1.8634122e-02
1.7421932e-02
1.5761629e-02
1.3043368e-02
8.9739306e-03
3.8231035e-03
-1.8396584e-03
-6.4927022e-03
-1.0415833e-02
-1.3887248e-02
-1.6442195e-02
-1.8228890e-02
-1.9813270e-02
-2.1965214e-02
-2.4297938e-02
-2.6377042e-02
-2.8046922e-02
-2.9468795e-02
-3.1075623e-02
-3.2375305e-02
-3.3175042e-02
-3.3006535e-02
-3.1758545e-02
-3.0488795e-02
-2.8527156e-02
-2.5038417e-02
-1.9134962e-02
-9.1503886e-03
3.3413171e-03
1.5454859e-02
2.6094753e-02
3.4433631e-02
3.9913748e-02
4.4027939e-02
4.8308981e-02
5.2514693e-02
5.7964737e-02
6.5163238e-02
7.2496024e-02
8.0034708e-02
8.7139162e-02
9.2883483e-02
9.7525384e-02
1.0109461e-01
1.0373011e-01
1.0408303e-01
1.0135981e-01
9.5794379e-02
8.6837940e-02
7.4267003e-02
5.7317852e-02
3.6491195e-02
1.2112458e-02
-1.3558726e-02
-3.3764275e-02
-4.6405632e-02
-5.3293279e-02
-5.6152356e-02
-5.7085836e-02
-5.6405789e-02
-5.5389495e-02
-5.4620558e-02
-5.2058649e-02
-4.7339680e-02
-4.1243386e-02
-3.5219906e-02
-3.0473112e-02
-2.6587985e-02
-2.3357051e-02
-2.0834029e-02
-1.9114454e-02
-1.7828817e-02
-1.6484437e-02
-1.4490136e-02
-1.1390726e-02
-7.7571524e-03
-3.2314094e-03
2.0805919e-03
6.8736175e-03
1.0803973e-02
1.3100815e-02
1.3449180e-02
1.2409317e-02
9.6409159e-03
5.3739600e-03
5.3285070e-05
-5.6317097e-03
-1.0891730e-02
-1.5177360e-02
-1.7960656e-02
-1.9851897e-02
-2.0484796e-02
-1.9143692e-02
-1.5449285e-02
-8.7039719e-03
-3.8404488e-04
7.3139995e-03
1.3572973e-02
1.8105425e-02
2.0229260e-02
1.9001473e-02
1.4563935e-02
6.2261805e-03
-5.4772391e-03
-1.7916271e-02
-3.1079204e-02
-4.5006351e-02
-5.9851996e-02
-7.6087803e-02
-9.2480685e-02
-1.0819566e-01
-1.2209406e-01
-1.3346150e-01
-1.4224152e-01
-1.4830885e-01
-1.5302904e-01
-1.5772550e-01
-1.6323943e-01
-1.6898472e-01
-1.7330050e-01
-1.7632900e-01
-1.7802021e-01
-1.7672170e-01
-1.6888211e-01
-1.5241120e-01
-1.2783686e-01
-9.3594299e-02
-4.5189736e-02
1.1944013e-02
5.9128416e-02
8.9204645e-02
1.0774622e-01
1.1785715e-01
1.2398750e-01
1.3035574e-01
1.3718202e-01
1.4356747e-01
1.4770332e-01
1.4860830e-01
1.4615818e-01
1.4075571e-01
1.3441365e-01
1.2733082e-01
1.1835220e-01
1.0771006e-01
9.6665672e-02
8.6670250e-02
7.7726655e-02
7.0022362e-02
6.3754467e-02
5.7627160e-02
5.0855732e-02
4.3000452e-02
3.5704215e-02
3.0639596e-02
2.6842979e-02
2.4085777e-02
2.2080813e-02
2.0685980e-02
2.0351827e-02
2.0434212e-02
1.9727647e-02
1.7436580e-02
1.4291493e-02
1.0428845e-02
5.4024878e-03
1.2548038e-04
-4.9737348e-03
-8.8266492e-03
-1.0891765e-02
-1.1638891e-02
-1.0730674e-02
-8.9339537e-03
-6.7117106e-03
-4.9466425e-03
-5.2048755e-03
-7.2889929e-03
-1.0631542e-02
-1.4409152e-02
-1.7986356e-02
-2.0724680e-02
-2.1910004e-02
-2.2356762e-02
-2.2201574e-02
-2.0752078e-02
-1.8074876e-02
-1.4431280e-02
-1.0877254e-02
-7.7946091e-03
-4.8175698e-03
-2.1492808e-03
1.2019505e-04
1.1679153e-03
1.2579083e-03
1.2193059e-03
8.9805571e-04
4.7748304e-04
-4.3420232e-04
-2.1507797e-03
-5.1315038e-03
-8.7711578e-03
-1.1831422e-02
-1.6004697e-02
-2.1293588e-02
-2.5212307e-02
-2.6118505e-02
-2.3989196e-02
-2.1719952e-02
-2.1016849e-02
-2.1544640e-02
-2.3308477e-02
-2.6213984e-02
-2.9136715e-02
-2.9439491e-02
-2.5709061e-02
-1.7779063e-02
-6.5307783e-03
5.6970830e-03
1.7807649e-02
2.8512021e-02
3.6117023e-02
3.9362645e-02
3.6638684e-02
2.8494311e-02
1.7449193e-02
7.0272379e-03
5.8307215e-04
-2.1215463e-03
-3.1251213e-03
-3.1760489e-03
-2.6119704e-03
-1.5160690e-03
2.1061315e-05
1.3502526e-03
2.1905809e-03
3.1972165e-03
4.5539212e-03
5.9005287e-03
7.8268325e-03
1.0573320e-02
1.4985735e-02
2.1265121e-02
2.7465816e-02
3.3608646e-02
3.9996577e-02
4.5995649e-02
5.1503515e-02
5.5692408e-02
5.8595751e-02
6.0081069e-02
5.8803335e-02
5.3410165e-02
4.2077856e-02
2.6294319e-02
1.0383506e-02
-3.3804609e-03
-1.4794590e-02
-2.3097122e-02
-2.6921367e-02
-2.7877703e-02
-2.7323329e-02
-2.4924670e-02
-2.1600566e-02
-1.7577190e-02
-1.3043883e-02
-9.0281751e-03
-6.2422766e-03
-3.7307758e-03
-1.0743934e-03
-3.2306873e-04
-6.8672838e-04
3.1092692e-05
1.5054899e-03
3.3145349e-03
5.1715236e-03
7.0679125e-03
8.6200646e-03
9.5329817e-03
1.0891251e-02
1.1854643e-02
1.1482694e-02
1.0367832e-02
8.5580312e-03
6.0790911e-03
2.3470115e-03
-2.2872240e-03
-7.8177299e-03
-1.4884397e-02
-2.2403280e-02
-3.0116784e-02
-3.7847580e-02
-4.5477239e-02
-5.2866578e-02
-5.8774023e-02
-6.3046625e-02
-6.5291066e-02
-6.5450519e-02
-6.3781814e-02
-5.9788792e-02
-5.4291121e-02
-4.7316808e-02
-3.7999120e-02
-2.5441897e-02
-1.0715046e-02
2.1774937e-03
1.1864265e-02
1.8594713e-02
2.2276826e-02
2.3921088e-02
2.4375119e-02
2.4408654e-02
2.4091919e-02
2.3288122e-02
2.2329227e-02
1.9818053e-02
1.5649799e-02
1.1851682e-02
9.1608918e-03
6.4119979e-03
2.1369068e-03
-3.3670383e-03
-9.8917628e-03
-1.5973262e-02
-1.9453810e-02
-2.0893729e-02
-2.0779691e-02
-1.9233926e-02
-1.5659654e-02
-9.8466039e-03
-3.8480285e-03
1.1586477e-03
4.3584127e-03
6.2408173e-03
8.0802249e-03
9.5420896e-03
1.0409054e-02
1.0190169e-02
9.6452184e-03
9.9357195e-03
1.0664114e-02
1.2104802e-02
1.4057187e-02
1.6445657e-02
1.9906045e-02
2.3826057e-02
2.7687258e-02
3.1271701e-02
3.4400566e-02
3.7118031e-02
3.8790379e-02
3.7879268e-02
3.3050500e-02
2.4525729e-02
1.3958693e-02
3.9159101e-03
-3.9249848e-03
-1.0041354e-02
-1.5160075e-02
-1.9406897e-02
-2.2329467e-02
-2.3289132e-02
-2.3426597e-02
-2.3688209e-02
-2.3139035e-02
-2.0926332e-02
-1.6663791e-02
-1.1524399e-02
-6.4203917e-03
-1.0955972e-03
4.1702673e-03
9.3039781e-03
1.3518701e-02
1.7004207e-02
2.0292355e-02
2.2894272e-02
2.4569710e-02
2.4504776e-02
2.2188624e-02
1.8570040e-02
1.6186478e-02
1.5599690e-02
1.4710995e-02
1.2729257e-02
9.1678369e-03
4.2804193e-03
-7.7824133e-04
-6.2217696e-03
-1.1840740e-02
-1.7067417e-02
-2.1680660e-02
-2.5370035e-02
-2.8473982e-02
-3.1081590e-02
-3.2978588e-02
-3.4128306e-02
-3.4882428e-02
-3.6306362e-02
-3.7747995e-02
-3.7852508e-02
-3.6163414e-02
-3.2823123e-02
-2.8985199e-02
-2.3349704e-02
-1.5035893e-02
-6.2865970e-03
1.7934021e-03
9.0896220e-03
1.5895950e-02
2.1705514e-02
2.6526609e-02
3.1865285e-02
3.7184353e-02
4.1316383e-02
4.3720679e-02
4.4230903e-02
4.3726935e-02
4.2494686e-02
3.9506369e-02
3.3231466e-02
2.4143281e-02
1.3788386e-02
1.2004235e-03
-1.3961397e-02
-3.0651191e-02
-4.7768395e-02
-6.3484396e-02
-7.5442277e-02
-7.9864489e-02
-7.6997792e-02
-7.2174081e-02
-6.9277877e-02
-6.9767640e-02
-7.2637970e-02
-7.6532956e-02
-8.0466433e-02
-8.3341370e-02
-8.5755944e-02
-8.8055009e-02
-8.9765220e-02
-8.9935541e-02
-8.7600720e-02
-8.3569843e-02
-7.8681398e-02
-7.3182459e-02
-6.6958223e-02
-5.9514314e-02
-5.0919105e-02
-4.0354049e-02
-2.7170428e-02
-1.1451994e-02
6.8312001e-03
2.7321360e-02
5.1423396e-02
7.7051911e-02
9.8011153e-02
1.1224365e-01
1.1984689e-01
1.2170375e-01
1.1897598e-01
1.1362423e-01
1.0825287e-01
1.0247226e-01
9.6621600e-02
9.1207682e-02
8.5596480e-02
7.9785336e-02
7.3655445e-02
6.8673135e-02
6.5427579e-02
6.2409833e-02
5.8859597e-02
5.4984210e-02
5.1080486e-02
4.6082535e-02
3.9778672e-02
3.2830333e-02
2.5079835e-02
1.6420683e-02
7.1314099e-03
-6.6037193e-04
-5.7910020e-03
-8.9601703e-03
-9.8311197e-03
-8.6842053e-03
-6.3029871e-03
-2.9588209e-03
1.8093601e-03
9.4989669e-03
1.8949255e-02
2.8235503e-02
3.8045665e-02
4.8681225e-02
5.8658186e-02
6.6125237e-02
7.1018103e-02
7.4100986e-02
7.5822975e-02
7.6247907e-02
7.4128519e-02
6.7916353e-02
5.6905343e-02
4.1081532e-02
1.8925555e-02
-7.9153268e-03
-3.1212965e-02
-4.7227952e-02
-5.7671790e-02
-6.3592934e-02
-6.6975657e-02
-6.9295481e-02
-7.1022223e-02
-7.2532208e-02
-7.2842261e-02
-7.1663164e-02
-6.9909060e-02
-6.7930759e-02
-6.5724366e-02
-6.3959199e-02
-6.3979846e-02
-6.5508614e-02
-6.7690612e-02
-6.9583543e-02
-6.9834138e-02
-6.7618893e-02
-6.2025700e-02
-5.2806611e-02
-4.0257100e-02
-2.4965133e-02
-8.6989010e-03
5.8895923e-03
1.7110233e-02
2.5123039e-02
3.0352014e-02
3.3157565e-02
3.4700041e-02
3.4568901e-02
3.2003725e-02
2.8176780e-02
2.3672921e-02
1.8415401e-02
1.2079925e-02
5.4841163e-03
-4.5242230e-04
-7.1618341e-03
-1.4681764e-02
-2.1555992e-02
-2.6703389e-02
-2.9921309e-02
-3.1986394e-02
-3.2586680e-02
-3.1723097e-02
-2.8214797e-02
-1.9887298e-02
-9.3969322e-03
-1.0721715e-03
4.2021132e-03
7.2922952e-03
8.4169425e-03
7.2427847e-03
4.6322017e-03
1.4990672e-03
-1.5318128e-03
-3.7116585e-03
-4.9637025e-03
-5.3711891e-03
-5.6902164e-03
-6.1932455e-03
-6.3635766e-03
-6.2114595e-03
-5.5325826e-03
-4.7168128e-03
-3.5769261e-03
-1.7982128e-03
-5.4067586e-04
1.2205795e-03
4.6405306e-03
9.8814846e-03
1.7628182e-02
2.5519112e-02
3.0221255e-02
3.0700194e-02
2.9190296e-02
2.8334035e-02
2.6969610e-02
2.4450621e-02
2.1274571e-02
1.7728843e-02
1.4427048e-02
1.1012517e-02
7.5797651e-03
4.7325026e-03
3.3400886e-03
3.7110984e-03
4.6478779e-03
5.5117037e-03
7.0933547e-03
1.0737286e-02
1.5743312e-02
1.9903914e-02
2.2368917e-02
2.2100956e-02
1.8887908e-02
1.3481348e-02
7.1412506e-03
2.9323262e-03
8.7435535e-04
-3.3199124e-04
3.8101635e-04
3.0744209e-03
6.4947691e-03
9.0395275e-03
1.0774898e-02
1.2509422e-02
1.3256707e-02
1.2888727e-02
1.2121091e-02
1.1600191e-02
1.1630223e-02
1.1704007e-02
1.1897684e-02
1.1846468e-02
1.1635844e-02
1.1428846e-02
1.0843201e-02
1.0782143e-02
1.1335885e-02
1.2585817e-02
1.5337627e-02
1.8924193e-02
2.1644619e-02
2.2552332e-02
2.3022636e-02
2.3473665e-02
2.3397626e-02
2.3289314e-02
2.2015219e-02
1.9419877e-02
1.6581472e-02
1.3614810e-02
1.0382295e-02
6.1577443e-03
1.4533241e-03
-2.7320278e-03
-6.8089202e-03
-1.1620421e-02
-1.8194842e-02
-2.5801798e-02
-3.3086767e-02
-3.9707583e-02
-4.4579553e-02
-4.7898019e-02
-5.0164030e-02
-5.0223342e-02
-4.7755039e-02
-4.3983193e-02
-4.0768432e-02
-3.8656119e-02
-3.6786351e-02
-3.4270348e-02
-3.1030133e-02
-2.8540682e-02
-2.7556869e-02
-2.7414332e-02
-2.7501072e-02
-2.7662507e-02
-2.8037199e-02
-2.7949259e-02
-2.7301425e-02
-2.6330908e-02
-2.4768066e-02
-2.2920862e-02
-2.0463543e-02
-1.7802784e-02
-1.5891137e-02
-1.3954876e-02
-1.0684946e-02
-4.0883217e-03
7.7919046e-03
2.2225007e-02
3.3517502e-02
3.9936771e-02
4.3015878e-02
4.3827896e-02
4.2988941e-02
4.1249989e-02
3.9148191e-02
3.6765094e-02
3.3709444e-02
3.0497901e-02
2.7909179e-02
2.5579912e-02
2.3554106e-02
2.1823075e-02
2.0296158e-02
1.8300952e-02
1.5421646e-02
1.3069437e-02
1.1109070e-02
8.6429507e-03
5.4036170e-03
1.1927603e-03
-3.6466807e-03
-1.0109333e-02
-1.8038874e-02
-2.4807365e-02
-2.9769402e-02
-3.3859532e-02
-3.6653386e-02
-3.6978415e-02
-3.4685064e-02
-3.0354489e-02
-2.3921263e-02
-1.6007046e-02
-7.9928029e-03
-1.0892782e-03
3.4327356e-03
6.0295758e-03
6.7578463e-03
5.0176858e-03
1.3346768e-03
-4.0944744e-03
-1.0206228e-02
-1.6051679e-02
-2.0755886e-02
-2.3580310e-02
-2.4982244e-02
-2.3724953e-02
-1.8152449e-02
-9.0126485e-03
1.0197993e-03
9.7591093e-03
1.7392676e-02
2.4019087e-02
2.9817150e-02
3.5378979e-02
4.0355916e-02
4.5866261e-02
5.1731014e-02
5.6791574e-02
6.1730218e-02
6.6368737e-02
7.0253865e-02
7.2584768e-02
7.3793219e-02
7.5172143e-02
7.5542269e-02
7.4070134e-02
7.1006602e-02
6.6782630e-02
6.0581833e-02
5.0198604e-02
3.6059014e-02
1.8724191e-02
-4.6302327e-04
-1.7418570e-02
-3.0819560e-02
-4.1178783e-02
-4.8857898e-02
-5.3681887e-02
-5.5643961e-02
-5.6085484e-02
-5.5220004e-02
-5.2891874e-02
-4.8859292e-02
-4.4695422e-02
-4.3100625e-02
-4.2956331e-02
-4.2901432e-02
-4.3488817e-02
-4.5174249e-02
-4.7702956e-02
-4.9604093e-02
-5.1375889e-02
-5.4334338e-02
-5.7512591e-02
-5.9099014e-02
-5.6606773e-02
-4.8347541e-02
-3.7110881e-02
-2.8606400e-02
-2.4545314e-02
-2.2987750e-02
-2.2931364e-02
-2.3830794e-02
-2.5169810e-02
-2.5685443e-02
-2.4050069e-02
-2.1986409e-02
-2.1084405e-02
-2.0598591e-02
-1.9203051e-02
-1.5829740e-02
-1.1032633e-02
-4.9784124e-03
1.7692476e-03
7.0916237e-03
1.0655362e-02
1.2372926e-02
1.2387683e-02
1.1312452e-02
8.0248957e-03
2.6912064e-03
