-1.1082628e-01
-1.9134508e-01
-2.5290702e-01
-2.8588690e-01
-2.9134067e-01
-2.7737178e-01
-2.5519641e-01
-2.2568000e-01
-2.0395550e-01
-2.0934849e-01
-2.2250068e-01
-2.2735704e-01
-2.2168333e-01
-1.9964176e-01
-1.6143415e-01
-1.1339588e-01
-6.5871481e-02
-1.8628799e-02
1.3594906e-02
1.2603582e-02
-1.7657704e-03
-1.4987359e-02
-2.2611222e-02
-1.3728042e-02
1.4171890e-02
5.0959440e-02
7.9546150e-02
9.4765148e-02
9.2769218e-02
7.6925754e-02
5.9802665e-02
3.4264817e-02
-2.0429461e-04
-2.4697843e-02
-2.9010629e-02
-1.6572362e-02
5.0317493e-03
3.3988804e-02
5.1725721e-02
4.3110055e-02
2.5291123e-02
-3.6186371e-04
-3.5526866e-02
-6.1241305e-02
-6.7052869e-02
-5.4825997e-02
-2.9790123e-02
1.2699387e-03
1.3285570e-02
-5.4630627e-03
-2.9522196e-02
-4.8821033e-02
-6.4654610e-02
-6.7330166e-02
-5.0793587e-02
-1.9535818e-02
1.8342153e-02
5.8547546e-02
7.7889909e-02
6.4717111e-02
4.6173981e-02
3.5533186e-02
3.4725464e-02
5.2750515e-02
9.2045948e-02
1.3762369e-01
1.7254555e-01
1.9846370e-01
1.9535902e-01
1.5171358e-01
9.9394165e-02
5.2109211e-02
7.3977092e-03
-2.6800749e-02
-4.4577430e-02
-4.9549799e-02
-4.8218664e-02
-4.4906936e-02
-5.2241286e-02
-7.2043053e-02
-8.8098320e-02
-9.5461254e-02
-9.7211929e-02
-9.3312415e-02
-8.3559667e-02
-7.3376180e-02
-6.7879869e-02
-6.2586839e-02
-6.0816572e-02
-6.7960152e-02
-7.5457438e-02
-7.5421574e-02
-6.7264649e-02
-5.2053358e-02
-3.1178220e-02
-1.1218862e-02
2.6856173e-03
1.3381627e-02
1.7538059e-02
1.2849418e-02
8.2726722e-03
1.1357678e-02
2.3769225e-02
4.4676510e-02
7.4006215e-02
1.0209437e-01
1.1854362e-01
1.2127847e-01
1.0453340e-01
7.4635519e-02
4.4082278e-02
1.7246449e-02
-2.2368517e-03
-1.4156477e-02
-2.0126713e-02
-2.4730550e-02
-3.2563034e-02
-4.1244319e-02
-4.9929843e-02
-5.8265169e-02
-6.2828266e-02
-6.0700164e-02
-5.0928841e-02
-3.6389142e-02
-1.9929630e-02
-1.0641731e-02
-1.5505899e-02
-2.6724989e-02
-3.8270166e-02
-4.7929511e-02
-5.3557281e-02
-5.4068351e-02
-4.8040788e-02
-3.7603698e-02
-2.4012357e-02
-1.4074555e-02
-1.4701537e-02
-2.0401648e-02
-2.6828051e-02
-3.0475163e-02
-2.7687981e-02
-1.6646881e-02
4.5095332e-03
3.3137842e-02
6.6255022e-02
9.7832124e-02
1.2439440e-01
1.4255721e-01
1.4418133e-01
1.2664258e-01
9.1119795e-02
5.1348041e-02
2.0124519e-02
-4.7052805e-03
-2.4550616e-02
-3.9708109e-02
-5.0215438e-02
-5.4151146e-02
-5.1960807e-02
-4.5034194e-02
-3.3546420e-02
-1.4823864e-02
1.2028061e-02
4.0959306e-02
6.0225809e-02
5.7857391e-02
3.8623100e-02
1.7436559e-02
-4.6053925e-04
-1.6770086e-02
-3.3813525e-02
-4.8445383e-02
-5.6004141e-02
-5.7471159e-02
-5.5385466e-02
-5.3869783e-02
-5.3430015e-02
-4.9990126e-02
-4.3420482e-02
-3.5047128e-02
-2.5259855e-02
-1.1178592e-02
1.0578011e-02
3.6039241e-02
5.7431701e-02
6.6516123e-02
6.4472762e-02
5.6820721e-02
4.3071697e-02
2.7276560e-02
1.1842350e-02
-1.0712806e-03
-6.7398429e-03
-7.2325183e-03
-6.3452128e-03
-6.5249148e-03
-6.7943906e-03
-4.6026299e-03
-2.0619084e-05
2.1628128e-03
-2.8680652e-03
-7.9844785e-03
-6.7817871e-03
-2.8235329e-03
-2.1994693e-03
-8.6710098e-03
-1.6491590e-02
-2.3395555e-02
-3.2867001e-02
-4.1834530e-02
-4.8791705e-02
-5.1625273e-02
-4.6568441e-02
-3.6448654e-02
-2.5637271e-02
-1.6338868e-02
-7.0743016e-03
1.3656437e-03
6.7852104e-03
1.5986674e-02
3.2849658e-02
5.5560799e-02
8.2173254e-02
1.0710714e-01
1.1676807e-01
1.0100899e-01
7.1781228e-02
4.3650631e-02
2.0373862e-02
2.7825053e-03
-1.0492752e-02
-1.8695425e-02
-1.9994097e-02
-1.6626622e-02
-1.3591756e-02
-1.3326272e-02
-1.3524174e-02
-1.5809694e-02
-2.2417616e-02
-2.9364788e-02
-3.5645717e-02
-4.0433109e-02
-4.2231895e-02
-4.3762198e-02
-4.9394507e-02
-5.9512619e-02
-6.6624714e-02
-6.7668565e-02
-6.5046143e-02
-5.9292776e-02
-5.2617194e-02
-4.4503252e-02
-3.2777378e-02
-1.8603537e-02
-6.8188775e-03
-2.2325137e-04
7.5520900e-03
1.8080337e-02
2.8953501e-02
4.2379635e-02
5.7938634e-02
7.7603398e-02
1.0167175e-01
1.2154262e-01
1.1909157e-01
8.9299457e-02
5.6687036e-02
3.5405325e-02
2.2711089e-02
1.7458982e-02
1.6305627e-02
1.8658081e-02
2.3780058e-02
2.3896096e-02
9.9341537e-03
-1.4817553e-02
-3.7493636e-02
-5.3354070e-02
-6.4242372e-02
-7.2726591e-02
-8.0594133e-02
-8.4382138e-02
-8.2818217e-02
-7.9853477e-02
-8.1733888e-02
-9.0841062e-02
-9.9916781e-02
-1.0337727e-01
-9.9204131e-02
-8.7690517e-02
-7.3057738e-02
-5.4914881e-02
-3.2131486e-02
-6.5802173e-03
1.8205453e-02
4.1415227e-02
6.5997881e-02
8.9831355e-02
1.1648154e-01
1.4146009e-01
1.5115639e-01
1.5502235e-01
1.6234467e-01
1.5981553e-01
1.3274056e-01
9.0381042e-02
5.1203742e-02
1.8482905e-02
-4.7791332e-03
-1.5659671e-02
-1.7531396e-02
-1.0086994e-02
6.2807216e-03
2.1671055e-02
1.8233443e-02
-5.2802723e-03
-3.1812381e-02
-5.4029094e-02
-6.6428279e-02
-6.4945397e-02
-5.6170144e-02
-4.5233516e-02
-3.5049550e-02
-3.6557886e-02
-5.6306209e-02
-7.9586098e-02
-9.1544748e-02
-9.1613857e-02
-8.2312291e-02
-6.9671368e-02
-5.8903441e-02
-4.5064128e-02
-2.5783192e-02
-6.4969679e-03
4.5997993e-03
6.6830139e-03
9.4070997e-03
1.7531820e-02
3.4227807e-02
5.7011655e-02
8.0114078e-02
1.0895042e-01
1.4323455e-01
1.6614151e-01
1.5524029e-01
1.1451015e-01
7.2056095e-02
3.9618584e-02
1.5984014e-02
-4.0948687e-03
-2.3567543e-02
-3.5904515e-02
-4.0311945e-02
-4.2714184e-02
-5.0928420e-02
-6.5828796e-02
-7.8258963e-02
-8.4478196e-02
-8.5142565e-02
-8.4901642e-02
-8.7421822e-02
-8.6436591e-02
-8.0103986e-02
-7.4641533e-02
-7.2227598e-02
-6.6375039e-02
-5.0880759e-02
-2.5137246e-02
8.6570221e-03
4.0086576e-02
6.4615174e-02
9.3360677e-02
1.3055803e-01
1.6436622e-01
1.7234833e-01
1.5010865e-01
1.1728512e-01
8.5123908e-02
5.9915189e-02
4.2974170e-02
3.0796650e-02
2.7138790e-02
3.2375682e-02
4.1301455e-02
4.3290676e-02
3.3818817e-02
1.7330512e-02
-5.0382950e-03
-2.8470444e-02
-5.1001881e-02
-7.0965644e-02
-8.3803958e-02
-8.9149026e-02
-8.7818112e-02
-8.2550029e-02
-7.3381064e-02
-6.3071263e-02
-5.6987336e-02
-6.1348644e-02
-8.3772322e-02
-1.1543885e-01
-1.4300835e-01
-1.6314494e-01
-1.7545224e-01
-1.8235637e-01
-1.8341384e-01
-1.8216244e-01
-1.8422450e-01
-1.9244031e-01
-2.0974416e-01
-2.2443462e-01
-2.2458789e-01
-2.0785729e-01
-1.7173667e-01
-1.1600426e-01
-3.8053060e-02
5.8596825e-02
1.6612388e-01
2.7402185e-01
3.7187741e-01
4.5724869e-01
5.1656364e-01
5.4618791e-01
5.4709899e-01
5.1597196e-01
4.6828700e-01
4.0131896e-01
3.1169034e-01
2.1578875e-01
1.2044133e-01
2.6894334e-02
-7.5225536e-02
-1.8543447e-01
-2.8078017e-01
-3.4824549e-01
-3.8566894e-01
-4.0317424e-01
-4.1300306e-01
-4.2818302e-01
-4.6033598e-01
-4.9225974e-01
-5.0593067e-01
-4.9376994e-01
-4.4680449e-01
-3.6328066e-01
-2.4666227e-01
-1.1016054e-01
3.6265393e-02
1.7862762e-01
2.9852626e-01
3.9437969e-01
4.5195753e-01
4.6141528e-01
4.4369563e-01
4.2973870e-01
4.3451610e-01
4.3995677e-01
4.2877630e-01
4.0370873e-01
3.8433424e-01
3.7694938e-01
3.4677694e-01
2.7039204e-01
1.6281962e-01
5.7853713e-02
-1.6802488e-02
-6.2335397e-02
-8.4390613e-02
-8.9060681e-02
-8.2688161e-02
-6.8602348e-02
-7.3443159e-02
-1.0660228e-01
-1.4158268e-01
-1.5811459e-01
-1.5980693e-01
-1.6743878e-01
-1.8326552e-01
-1.9598035e-01
-2.0224256e-01
-2.0141312e-01
-2.0222836e-01
-2.0333856e-01
-1.8982077e-01
-1.5687583e-01
-1.1095715e-01
-6.4629853e-02
-2.1369622e-02
6.4629811e-03
7.7872255e-03
8.9082782e-04
-1.2865393e-02
-3.7471699e-02
-5.3223526e-02
-4.5423216e-02
-1.8794067e-02
1.5544202e-02
5.9158920e-02
9.3925247e-02
9.9898416e-02
9.3441504e-02
7.6066705e-02
4.6452981e-02
2.6861450e-02
3.0884736e-02
5.7283876e-02
9.9361349e-02
1.4246563e-01
1.5340204e-01
1.2504240e-01
8.7663810e-02
4.5160281e-02
-7.0936726e-03
-5.2020379e-02
-7.5409609e-02
-7.6022257e-02
-5.8171197e-02
-2.9280709e-02
-1.6667623e-02
-3.3778055e-02
-5.9229158e-02
-8.8410966e-02
-1.2294638e-01
-1.4799375e-01
-1.5324444e-01
-1.4278729e-01
-1.2626683e-01
-1.0257496e-01
-8.2308072e-02
-7.6056087e-02
-6.8516467e-02
-5.5339801e-02
-3.7593076e-02
-3.2508102e-03
5.5456132e-02
1.2290378e-01
1.7926562e-01
2.2239165e-01
2.2989225e-01
1.9681995e-01
1.5796765e-01
1.1741667e-01
6.9710770e-02
3.3474463e-02
2.2182515e-02
3.2996298e-02
5.9596089e-02
9.2011388e-02
9.8202685e-02
6.8243281e-02
3.4943596e-02
7.4931089e-03
-2.1088876e-02
-3.9104959e-02
-3.6367843e-02
-1.7958238e-02
7.7869641e-03
3.6093163e-02
4.5523515e-02
2.6423048e-02
2.0182939e-03
-1.9418404e-02
-4.1257675e-02
-5.5741691e-02
-5.7476392e-02
-5.3182168e-02
-5.1492040e-02
-5.5167014e-02
-7.1036392e-02
-9.5072430e-02
-1.1336121e-01
-1.2317696e-01
-1.2408674e-01
-1.1431937e-01
-9.5822048e-02
-8.0845082e-02
-7.9134756e-02
-7.8752940e-02
-6.8965200e-02
-4.9458180e-02
-2.1312953e-02
8.4482501e-03
3.5444610e-02
6.4315856e-02
1.0085617e-01
1.3310072e-01
1.4665431e-01
1.4293083e-01
1.1947428e-01
8.4325941e-02
5.3859791e-02
3.3670276e-02
2.3210804e-02
1.8801333e-02
2.1104787e-02
2.7663736e-02
3.2699295e-02
2.8602479e-02
4.4887395e-03
-3.0995819e-02
-6.1248658e-02
-8.1659063e-02
-9.0866420e-02
-9.0862954e-02
-8.4439772e-02
-7.5756363e-02
-6.9139371e-02
-6.5194442e-02
-6.4975098e-02
-7.0409446e-02
-8.1704231e-02
-9.0814219e-02
-8.8412765e-02
-7.4480797e-02
-5.2855640e-02
-3.1744871e-02
-1.7000798e-02
-2.3077516e-03
1.8200105e-02
4.0028923e-02
5.8637170e-02
8.2013625e-02
1.1797929e-01
1.6131947e-01
1.9776061e-01
2.0455560e-01
1.7888737e-01
1.3875945e-01
9.1036496e-02
4.4985257e-02
9.1298756e-03
-1.5393856e-02
-2.6398269e-02
-2.7592983e-02
-2.2801976e-02
-2.1535990e-02
-3.3158538e-02
-5.0175504e-02
-6.4844979e-02
-7.5199762e-02
-7.9928282e-02
-7.6713740e-02
-6.3869632e-02
-4.6596131e-02
-3.0203339e-02
-2.3752749e-02
-3.1399603e-02
-4.3281592e-02
-5.4625989e-02
-6.2194313e-02
-6.1903333e-02
-5.2800874e-02
-3.3423289e-02
-8.3010835e-03
1.2578251e-02
2.0136958e-02
1.7464574e-02
1.3709449e-02
1.1072455e-02
1.2362010e-02
2.0184157e-02
3.7037017e-02
6.5323665e-02
9.9107079e-02
1.2799028e-01
1.3812033e-01
1.2723832e-01
1.0341955e-01
6.7264402e-02
2.9625343e-02
1.5946448e-03
-1.6919651e-02
-2.5393291e-02
-2.6297389e-02
-2.3707815e-02
-2.3949028e-02
-2.9382677e-02
-3.7198473e-02
-4.7572343e-02
-5.8422553e-02
-6.7503914e-02
-7.1353638e-02
-6.5881561e-02
-5.5017785e-02
-4.5333862e-02
-4.1158858e-02
-4.1285700e-02
-4.1085117e-02
-3.9044763e-02
-3.6349542e-02
-3.4760198e-02
-2.9550624e-02
-1.5993612e-02
1.4867180e-03
1.3564294e-02
1.4200365e-02
1.0752032e-02
9.5263183e-03
8.4947549e-03
9.3604399e-03
1.3345118e-02
2.4160031e-02
4.6542903e-02
7.5671901e-02
9.8338436e-02
1.0235876e-01
9.1472206e-02
7.1387754e-02
4.2831701e-02
1.6615562e-02
-1.0249209e-03
-9.6552565e-03
-7.8206802e-03
-8.1944318e-05
4.7151129e-03
1.0015145e-03
-4.9659319e-03
-9.1767954e-03
-1.3833101e-02
-1.7711524e-02
-2.1189302e-02
-2.0824289e-02
-1.2398918e-02
-2.7775951e-04
6.8831189e-03
4.5138480e-03
-2.1190199e-03
-1.0409808e-02
-2.1850063e-02
-3.2459339e-02
-4.0261990e-02
-4.4115764e-02
-4.3075755e-02
-3.9381532e-02
-3.6671699e-02
-3.7244476e-02
-3.9190979e-02
-4.3229565e-02
-4.8155957e-02
-4.9226353e-02
-4.6699937e-02
-3.9984323e-02
-2.6960436e-02
-7.9801585e-03
1.2976483e-02
3.2626818e-02
5.5272390e-02
7.6643792e-02
8.9755902e-02
9.3801921e-02
8.2964277e-02
6.4456350e-02
4.9986886e-02
3.9974086e-02
3.2723068e-02
2.6879923e-02
2.2581860e-02
1.4044891e-02
-1.5061012e-03
-1.9026652e-02
-3.7565382e-02
-5.4049656e-02
-6.5600420e-02
-7.4009874e-02
-7.9544776e-02
-8.2496067e-02
-8.4494439e-02
-8.7752800e-02
-8.9148161e-02
-8.2903608e-02
-6.9356888e-02
-4.8010886e-02
-1.6705074e-02
2.1866244e-02
5.9360272e-02
8.7353867e-02
1.0354033e-01
1.0650380e-01
9.9053929e-02
8.5675084e-02
6.7128658e-02
5.0535332e-02
3.8318826e-02
2.3360821e-02
6.2043118e-04
-2.6641928e-02
-4.8903547e-02
-6.3022070e-02
-6.7396798e-02
-6.0001438e-02
-4.5129810e-02
-2.4717370e-02
2.2928664e-03
3.3045368e-02
6.1274473e-02
8.6373379e-02
1.1346367e-01
1.3572251e-01
1.4702313e-01
1.4013120e-01
1.0478434e-01
5.9090783e-02
2.1676085e-02
-8.3071112e-03
-3.6118838e-02
-6.5230708e-02
-9.1780922e-02
-1.1328777e-01
-1.2766337e-01
-1.3456645e-01
-1.3793426e-01
-1.3660462e-01
-1.2754990e-01
-1.1021658e-01
-8.8112774e-02
-6.6905220e-02
-4.8761080e-02
-3.3804571e-02
-1.7327870e-02
2.7434666e-03
2.3490969e-02
4.8086089e-02
7.7444055e-02
1.0492808e-01
1.1145324e-01
8.6899340e-02
5.3894941e-02
3.0087671e-02
1.5947325e-02
5.2768030e-03
-7.8287444e-03
-1.5633937e-02
-1.2261119e-02
4.2047933e-04
1.3337654e-02
1.9240693e-02
1.5514658e-02
-2.7847446e-03
-2.2723127e-02
-3.1328049e-02
-3.0826264e-02
-2.0736338e-02
-6.1165416e-04
2.7282455e-02
5.9012539e-02
9.3655018e-02
1.2372201e-01
1.3548863e-01
1.3298460e-01
1.1986071e-01
9.5439305e-02
7.1763486e-02
5.3094932e-02
3.1488658e-02
-5.3549161e-05
-3.8140921e-02
-7.2431205e-02
-9.9867661e-02
-1.2099429e-01
-1.3859875e-01
-1.5521489e-01
-1.6671682e-01
-1.7098062e-01
-1.6896710e-01
-1.6198676e-01
-1.5051912e-01
-1.3235740e-01
-1.0663138e-01
-7.4926565e-02
-4.1810970e-02
-7.3498316e-03
3.5841360e-02
8.9248550e-02
1.4220443e-01
1.6702137e-01
1.4916087e-01
1.1251175e-01
7.7788271e-02
4.9282770e-02
2.2072930e-02
-8.7757056e-03
-3.2302326e-02
-4.1677510e-02
-3.9952999e-02
-3.4207743e-02
-2.8430546e-02
-1.7836382e-02
-1.1563324e-03
1.5461716e-02
1.7649391e-02
4.7713931e-03
-1.8836561e-03
8.5175296e-03
3.4546893e-02
7.2609550e-02
1.2048333e-01
1.6815740e-01
2.0278293e-01
2.1982755e-01
1.9751235e-01
1.3526450e-01
7.0723157e-02
2.2532563e-02
-1.0466366e-02
-3.2285802e-02
-4.5088859e-02
-5.0464712e-02
-5.2271458e-02
-5.2598382e-02
-5.6593495e-02
-6.1711048e-02
-5.8258106e-02
-4.5236110e-02
-2.8057695e-02
-1.6522564e-02
-1.2822569e-02
-1.4478479e-02
-2.3713529e-02
-3.2994213e-02
-3.4448600e-02
-2.7549494e-02
-1.2945571e-02
8.3955135e-03
3.2273957e-02
4.4869572e-02
3.9525961e-02
2.1749024e-02
-2.7978073e-03
-2.6861798e-02
-4.6903233e-02
-6.2190769e-02
-7.2380316e-02
-7.8493311e-02
-8.0257526e-02
-7.7906951e-02
-7.0223319e-02
-5.9399528e-02
-4.8799288e-02
-4.1956785e-02
-4.5088232e-02
-5.2906317e-02
-5.6000311e-02
-5.2127753e-02
-4.1297791e-02
-2.4502996e-02
-9.0218639e-04
2.6038714e-02
5.0061945e-02
6.3873747e-02
6.0003531e-02
4.8937080e-02
4.5658096e-02
5.3486563e-02
7.0892927e-02
9.1422693e-02
1.1079234e-01
1.2217311e-01
1.2162542e-01
1.0758266e-01
7.3421798e-02
3.1289877e-02
-3.9847315e-03
-2.9528840e-02
-4.3758598e-02
-4.7939365e-02
-4.3181398e-02
-3.2102757e-02
-1.6184629e-02
-4.3047431e-03
-8.1831501e-03
-2.2806603e-02
-4.0392679e-02
-5.6253671e-02
-6.5624056e-02
-6.8806459e-02
-6.6407798e-02
-6.1487361e-02
-5.6987493e-02
-5.5176416e-02
-6.0644119e-02
-6.9833729e-02
-7.6596855e-02
-7.7181973e-02
-6.8214968e-02
-5.2405963e-02
-3.3510307e-02
-1.3386020e-02
9.2527145e-03
2.4307343e-02
1.9523919e-02
1.0028815e-02
8.5535344e-03
1.6283394e-02
3.8420983e-02
7.6036800e-02
1.1571616e-01
1.3332627e-01
1.3043795e-01
1.1654484e-01
8.6673237e-02
4.9538522e-02
1.4429565e-02
-1.2776936e-02
-2.4160814e-02
-1.8391390e-02
3.4635489e-03
2.9539572e-02
4.9247170e-02
5.1966935e-02
2.8778741e-02
-5.0098101e-03
-3.9697637e-02
-7.1036253e-02
-8.8397729e-02
-8.9551080e-02
-7.4418166e-02
-4.8618447e-02
-1.8843741e-02
-1.0982881e-03
-1.0332771e-02
-2.9672440e-02
-4.5293601e-02
-5.3447427e-02
-4.6106100e-02
-2.2943098e-02
1.3136050e-02
5.1708364e-02
8.4809776e-02
9.9465809e-02
8.3926068e-02
5.7661223e-02
3.3041548e-02
1.2506578e-02
7.9799961e-03
2.3921928e-02
5.3139205e-02
7.8634294e-02
9.7746483e-02
1.0099319e-01
7.1220778e-02
2.8211276e-02
-1.0515799e-02
-4.1861008e-02
-5.8218824e-02
-5.8004615e-02
-4.4697346e-02
-2.5253050e-02
-2.3490600e-03
1.0323124e-02
-8.1506346e-05
-2.1016016e-02
-4.6632758e-02
-7.4060203e-02
-9.1494671e-02
-9.5125288e-02
-8.8766072e-02
-7.7734180e-02
-6.1306298e-02
-5.2453062e-02
-6.4872620e-02
-8.3962952e-02
-1.0028882e-01
-1.1167041e-01
-1.0948462e-01
-9.1034736e-02
-6.2022603e-02
-3.2165709e-02
-1.6806539e-04
2.4561432e-02
2.8542059e-02
2.9315726e-02
3.8656545e-02
5.6339992e-02
8.9686311e-02
1.4217532e-01
2.0561600e-01
2.5896730e-01
2.8206842e-01
2.5739444e-01
1.9217334e-01
1.2195949e-01
6.0480170e-02
9.7786546e-03
-2.0461294e-02
-2.8607664e-02
-2.1845546e-02
-1.0179759e-02
5.9500037e-03
1.3938798e-02
-1.9118675e-03
-2.8409286e-02
-5.8059028e-02
-8.8524614e-02
-1.0883654e-01
-1.1489757e-01
-1.1085775e-01
-1.0186376e-01
-8.4692534e-02
-7.0753787e-02
-7.4084946e-02
-8.2154366e-02
-8.9013928e-02
-9.4928212e-02
-9.0155211e-02
-6.9978352e-02
-4.0300255e-02
-1.0320984e-02
2.1223935e-02
3.8930198e-02
2.4990230e-02
1.2692681e-03
-1.3283707e-02
-1.4429171e-02
3.4854839e-03
3.9694310e-02
8.9021100e-02
1.4439497e-01
1.9630268e-01
2.1708126e-01
1.9619132e-01
1.5854385e-01
1.1000898e-01
5.1933232e-02
-2.5514432e-04
-3.8896413e-02
-6.7157863e-02
-9.3151189e-02
-1.1542854e-01
-1.3118374e-01
-1.4038844e-01
-1.4202696e-01
-1.4029016e-01
-1.3234037e-01
-1.1031818e-01
-7.3067871e-02
-2.5742341e-02
2.4676376e-02
7.7751010e-02
1.1208210e-01
1.0820349e-01
8.7603282e-02
6.0319621e-02
2.6667499e-02
1.6170462e-03
-7.4599851e-03
-3.2180554e-03
1.0433085e-02
3.2466343e-02
4.3183093e-02
2.5967228e-02
-3.5095424e-03
-3.5953841e-02
-6.6619751e-02
-8.4025876e-02
-8.4445266e-02
-7.1838915e-02
-5.1087313e-02
-2.2304327e-02
9.2468571e-04
8.4209458e-03
1.3468357e-02
2.0488063e-02
3.0533801e-02
5.4789762e-02
9.8009202e-02
1.4257906e-01
1.7040938e-01
1.8960346e-01
1.8411926e-01
1.3723798e-01
7.7019672e-02
2.1100183e-02
-2.7393295e-02
-6.2095595e-02
-8.1439314e-02
-9.1706578e-02
-1.0040224e-01
-1.0329795e-01
-9.9642724e-02
-9.0930017e-02
-7.8184952e-02
-7.2761714e-02
-7.5466106e-02
-7.4357635e-02
-6.2609910e-02
-4.4120424e-02
-2.5780101e-02
-7.5404113e-03
-2.2109148e-03
-1.7485682e-02
-3.5899945e-02
-4.9785966e-02
-5.8689989e-02
-5.7402679e-02
-4.4015013e-02
-2.0562134e-02
9.6615277e-03
4.3463982e-02
6.3049649e-02
5.8620009e-02
4.8086050e-02
3.7414382e-02
2.3784061e-02
1.5984258e-02
2.0898528e-02
3.5707544e-02
5.5819186e-02
7.8076007e-02
7.9183410e-02
4.9744050e-02
1.8329514e-02
-2.0122977e-03
-1.3857016e-02
-1.2550665e-02
5.3049686e-03
3.4740339e-02
6.8636148e-02
1.0503090e-01
1.2423394e-01
1.1230754e-01
8.7363763e-02
5.8189674e-02
2.7028542e-02
4.6327045e-03
-5.3479393e-03
-6.9348557e-03
-4.0004933e-03
4.6479363e-04
-4.4337815e-03
-2.3124882e-02
-4.4791753e-02
-6.3882493e-02
-8.0394906e-02
-9.2511450e-02
-9.9618161e-02
-1.0228263e-01
-1.0112446e-01
-9.5320861e-02
-8.8347256e-02
-8.3455388e-02
-7.5340062e-02
-6.2031217e-02
-4.5798933e-02
-2.5977982e-02
-2.1790121e-03
1.8633563e-02
3.1337487e-02
4.5458166e-02
6.0351028e-02
6.3992097e-02
5.9401938e-02
5.6798796e-02
5.9469290e-02
6.4936941e-02
7.2781865e-02
7.8342403e-02
7.5000377e-02
6.4236047e-02
4.3976337e-02
1.7707585e-02
-4.3705953e-03
-2.0804541e-02
-3.1673948e-02
-3.5519924e-02
-3.1554046e-02
-2.5667033e-02
-2.5931351e-02
-2.9110245e-02
-3.3565244e-02
-4.2197660e-02
-5.0938037e-02
-5.4409424e-02
-5.1409805e-02
-4.4182466e-02
-3.4107779e-02
-2.2830863e-02
-1.2662757e-02
-3.1443024e-03
3.8469072e-03
7.1636693e-03
8.3363555e-03
6.6748423e-03
2.2879455e-03
-2.6615917e-03
-5.4368852e-03
-9.1890827e-03
-1.6653712e-02
-2.2039299e-02
-2.3457702e-02
-2.1263130e-02
-1.3916626e-02
-1.0066562e-03
1.6684390e-02
3.6656880e-02
5.8694119e-02
7.6557299e-02
8.4154941e-02
8.3503029e-02
7.1782916e-02
5.2230528e-02
3.3896276e-02
1.9597142e-02
1.0749269e-02
5.5655219e-03
5.7272395e-04
-7.9680503e-03
-2.1418415e-02
-3.6097234e-02
-5.2196585e-02
-6.9229049e-02
-8.2538966e-02
-9.0260483e-02
-9.2070867e-02
-8.9244161e-02
-8.3553083e-02
-7.7624548e-02
-7.3017129e-02
-6.9279334e-02
-6.6580756e-02
-6.3210239e-02
-5.9087227e-02
-5.2883645e-02
-3.9707293e-02
-2.1016298e-02
-4.0640899e-03
5.8204111e-03
1.2499209e-02
2.4084058e-02
3.9994830e-02
5.2665163e-02
5.9616335e-02
6.9719922e-02
8.9543073e-02
1.1483182e-01
1.4251084e-01
1.5909017e-01
1.5247336e-01
1.3555121e-01
1.1778229e-01
1.0556297e-01
1.0221807e-01
9.8092374e-02
9.1496588e-02
8.4412194e-02
7.1479147e-02
4.5614820e-02
7.7261463e-03
-2.7966446e-02
-5.2289749e-02
-6.9004131e-02
-8.1934869e-02
-8.8800563e-02
-8.7091316e-02
-7.9987770e-02
-7.1098699e-02
-6.3637503e-02
-5.8251711e-02
-5.3721975e-02
-5.1522865e-02
-5.3413619e-02
-5.9385637e-02
-6.4662215e-02
-6.5052773e-02
-6.1585485e-02
-5.7487732e-02
-5.5337911e-02
-5.2401971e-02
-4.6123078e-02
-3.7162537e-02
-2.6248158e-02
-1.4817893e-02
-4.5914067e-04
2.0022168e-02
4.4647340e-02
7.1094407e-02
9.5005625e-02
1.0951309e-01
1.0999801e-01
9.5362387e-02
6.9753865e-02
3.8363156e-02
5.6470842e-03
-2.3260256e-02
-4.6596542e-02
-6.5174320e-02
-7.8469660e-02
-8.4369687e-02
-8.4002540e-02
-8.0340545e-02
-7.5296162e-02
-7.0820422e-02
-6.2730610e-02
-4.6077401e-02
-2.1846470e-02
6.2021920e-03
3.5472523e-02
6.9683453e-02
1.0566188e-01
1.3322469e-01
1.3903149e-01
1.1483409e-01
8.1308825e-02
5.6932486e-02
4.0108921e-02
2.9145371e-02
1.8453807e-02
5.5451781e-03
-5.9687279e-03
-1.5731906e-02
-2.1731803e-02
-2.2922628e-02
-1.8680481e-02
-7.1666707e-03
7.4027503e-03
1.7752093e-02
1.6985911e-02
6.7227624e-03
-5.6149012e-03
-1.8722871e-02
-3.1704417e-02
-4.2174741e-02
-4.6937493e-02
-4.4895831e-02
-3.9825402e-02
-3.3594391e-02
-2.7773996e-02
-2.3071845e-02
-1.6374284e-02
-7.2751454e-03
-8.8807740e-04
-5.1024270e-05
1.3965317e-03
9.1976236e-03
2.0099816e-02
2.8208202e-02
2.8840556e-02
2.3013971e-02
1.6876266e-02
1.2938021e-02
8.2776991e-03
-6.8710993e-04
-9.0746651e-03
-1.2005181e-02
-1.2542820e-02
-1.1674762e-02
-8.1912378e-03
-6.7290993e-04
7.5416942e-03
1.0617225e-02
9.6024769e-03
6.0571023e-03
3.2662480e-03
4.7371886e-03
8.6642730e-03
1.2803161e-02
1.3257788e-02
9.3274220e-03
3.3835127e-03
-4.5184833e-03
-1.3012826e-02
-2.2113933e-02
-3.0203552e-02
-3.4320282e-02
-3.6543132e-02
-3.9571533e-02
-4.3229191e-02
-4.4707211e-02
-4.4620712e-02
-4.5546598e-02
-4.6470173e-02
-4.7213671e-02
-4.5394996e-02
-3.6941976e-02
-2.3309425e-02
-9.1143314e-03
2.2441261e-03
1.2484530e-02
2.5113813e-02
3.9859021e-02
5.4828220e-02
6.8771605e-02
8.5010279e-02
1.0597512e-01
1.2324309e-01
1.1962370e-01
9.0859726e-02
5.6488505e-02
2.9343726e-02
7.1032763e-03
-9.9865468e-03
-2.1276414e-02
-2.6407842e-02
-2.3839912e-02
-1.5630263e-02
-6.5435984e-03
-9.3048144e-04
1.6164681e-03
6.5718513e-04
-6.4316997e-03
-1.6779830e-02
-2.8800191e-02
-4.0353849e-02
-4.7750985e-02
-5.1453364e-02
-5.3017583e-02
-5.4111540e-02
-5.3843539e-02
-5.1366066e-02
-4.7798914e-02
-4.1896171e-02
-3.3611349e-02
-2.2397426e-02
-6.8034023e-03
8.0415571e-03
1.5323584e-02
1.5545142e-02
1.5254463e-02
1.5168311e-02
1.2105469e-02
1.0726340e-02
1.4045564e-02
2.0729923e-02
3.0272693e-02
4.0174232e-02
4.6281779e-02
4.4224542e-02
3.6457486e-02
3.0653594e-02
2.9655985e-02
2.8780935e-02
2.1672094e-02
1.1389003e-02
3.9540163e-03
-3.0466481e-03
-1.3825846e-02
-2.6617908e-02
-3.7099386e-02
-4.5832429e-02
-5.3569560e-02
-5.6023674e-02
-5.1699592e-02
-4.1397687e-02
-2.4415437e-02
-3.0142865e-03
1.7868156e-02
3.5896905e-02
5.4980229e-02
6.7115516e-02
6.0898396e-02
4.6670491e-02
3.3156905e-02
2.2953175e-02
1.9337925e-02
1.9154019e-02
1.5510210e-02
4.5900156e-03
-6.7534863e-03
-1.4773931e-02
-2.2740706e-02
-2.9795951e-02
-3.4908280e-02
-3.5528144e-02
-2.9053999e-02
-1.7574855e-02
-5.5548191e-03
2.5033382e-03
8.4902399e-03
1.2826188e-02
1.2672659e-02
9.4178510e-03
2.4619334e-03
-5.8608942e-03
-1.1557037e-02
-1.6086234e-02
-2.2232146e-02
-3.0523540e-02
-3.7917598e-02
-4.3284410e-02
-4.7324005e-02
-4.9499965e-02
-5.0903336e-02
-5.0433648e-02
-4.5010013e-02
-3.7420384e-02
-3.5799067e-02
-4.2803678e-02
-5.0974502e-02
-5.6577502e-02
-6.0079190e-02
-5.8177092e-02
-5.1297325e-02
-3.8896452e-02
-1.7127321e-02
1.2370602e-02
4.6126240e-02
8.4037107e-02
1.2858652e-01
1.6315015e-01
1.7018617e-01
1.5347873e-01
1.1673831e-01
7.7161485e-02
4.9961024e-02
3.1767524e-02
1.6986124e-02
1.8011488e-03
-9.1619778e-03
-1.1518912e-02
-5.8392672e-03
8.0184723e-03
2.9106460e-02
5.7039626e-02
8.9006803e-02
1.1007405e-01
1.0069625e-01
6.3946337e-02
2.3110027e-02
-1.0089297e-02
-3.5678449e-02
-5.3720933e-02
-6.6055282e-02
-7.3747273e-02
-7.6131593e-02
-7.2843974e-02
-6.6165122e-02
-5.9636055e-02
-5.1498227e-02
-3.9609778e-02
-2.6462572e-02
-1.5884153e-02
-1.0106174e-02
-5.4513604e-03
1.9248643e-03
9.4844790e-03
1.2553929e-02
1.0603717e-02
8.3993233e-03
4.1304884e-03
-5.8099312e-03
-1.5836769e-02
-2.3364757e-02
-2.8790538e-02
-3.0522080e-02
-2.8443559e-02
-2.4294447e-02
-2.0109828e-02
-1.4554051e-02
-1.0297175e-02
-1.0879204e-02
-1.2778233e-02
-1.4206166e-02
-1.2478699e-02
-5.5706069e-03
3.0607461e-03
9.5754302e-03
1.2285422e-02
1.3783463e-02
1.2318376e-02
5.4659295e-03
-1.8113425e-03
-7.8095565e-03
-1.0820045e-02
-7.5505589e-03
1.0637730e-03
1.1024155e-02
1.9796427e-02
3.0457846e-02
4.0373795e-02
4.5426188e-02
4.8319094e-02
4.8576073e-02
4.7005547e-02
4.4420720e-02
3.6929619e-02
2.2979144e-02
5.3550084e-03
-1.1335082e-02
-2.7827428e-02
-4.6256246e-02
-6.5822802e-02
-8.7326066e-02
-1.0851223e-01
-1.2784751e-01
-1.4729062e-01
-1.6664578e-01
-1.8300921e-01
-1.9114012e-01
-1.8948901e-01
-1.7902540e-01
-1.6019577e-01
-1.3493433e-01
-1.0192449e-01
-5.8560246e-02
-6.6634356e-03
5.0696441e-02
1.1602854e-01
1.9146980e-01
2.5770501e-01
3.0254122e-01
3.3088754e-01
3.3724610e-01
3.3358622e-01
3.3184607e-01
3.1237067e-01
2.5553255e-01
1.7472416e-01
9.9662423e-02
3.8800013e-02
-1.0002608e-02
-4.5069688e-02
-6.8592917e-02
-8.3176277e-02
-9.1121352e-02
-9.7616210e-02
-1.0549899e-01
-1.1209537e-01
-1.1195314e-01
-1.0513927e-01
-9.3347446e-02
-7.6126027e-02
-5.5997392e-02
-3.5063092e-02
-1.4855243e-02
8.9002402e-05
1.4381899e-03
-1.0665276e-02
-2.6098233e-02
-4.2098770e-02
-5.9547135e-02
-7.6562817e-02
-9.1778906e-02
-1.0319199e-01
-1.0886052e-01
-1.0916215e-01
-1.0575299e-01
-9.7515628e-02
-8.2654871e-02
-6.4265618e-02
-4.3546085e-02
-1.6950880e-02
1.5198999e-02
5.0713480e-02
8.8140093e-02
1.2232521e-01
1.4549713e-01
1.5912710e-01
1.6648511e-01
1.5604095e-01
1.2789430e-01
9.9275017e-02
7.7025045e-02
6.1869420e-02
5.3599293e-02
4.6066747e-02
2.9695381e-02
4.1720359e-03
-2.1702716e-02
-4.5510327e-02
-6.5921348e-02
-8.0912398e-02
-9.2040267e-02
-9.9492117e-02
-1.0393194e-01
-1.0872120e-01
-1.1766379e-01
-1.2952707e-01
-1.3757462e-01
-1.3795739e-01
-1.3054742e-01
-1.1624476e-01
-9.6002292e-02
-6.8528356e-02
-3.4368976e-02
1.1487227e-04
2.5445823e-02
3.8742173e-02
4.5456957e-02
5.1675370e-02
6.3544793e-02
8.4192624e-02
1.1049008e-01
1.3923305e-01
1.6743313e-01
1.8077461e-01
1.6095227e-01
1.1510420e-01
6.9353957e-02
3.5092920e-02
1.1727840e-02
-2.7300389e-03
-1.2170522e-02
-1.4432876e-02
-8.6195113e-03
5.2094382e-04
9.0954285e-03
1.7119467e-02
2.4366914e-02
2.4446872e-02
2.0983191e-02
1.5975325e-02
1.7085697e-03
-1.5142693e-02
-2.7444114e-02
-3.6848534e-02
-4.6880274e-02
-5.9104839e-02
-6.9556697e-02
-7.7090538e-02
-7.9666205e-02
-7.5630484e-02
-6.9640216e-02
-6.3825788e-02
-5.8976031e-02
-5.7359965e-02
-5.8018149e-02
-5.6067608e-02
-4.6394382e-02
-2.9962619e-02
-7.5996998e-03
2.3124101e-02
6.1573989e-02
1.0584946e-01
1.4814026e-01
1.6623335e-01
1.4485576e-01
1.0108170e-01
5.8898051e-02
2.3529147e-02
-5.9285219e-03
-3.1272463e-02
-5.5577568e-02
-7.7065831e-02
-9.5073525e-02
-1.1251179e-01
-1.3130307e-01
-1.4970321e-01
-1.6229553e-01
-1.6709195e-01
-1.6296380e-01
-1.5053705e-01
-1.3521614e-01
-1.1720437e-01
-9.5309651e-02
-7.2390492e-02
-5.4653909e-02
-4.2020857e-02
-2.4333123e-02
5.5330947e-04
3.4338885e-02
6.8003404e-02
8.6049313e-02
1.0330747e-01
1.3337258e-01
1.5590977e-01
1.3710470e-01
8.2158285e-02
3.0243025e-02
-2.7110075e-03
-1.2364985e-02
6.0278271e-03
4.4233938e-02
9.4388778e-02
1.5008711e-01
1.8853528e-01
1.8700193e-01
1.6135907e-01
1.3843583e-01
1.2316307e-01
1.2641933e-01
1.5222322e-01
1.7841890e-01
1.8426615e-01
1.6035036e-01
9.8771424e-02
1.1406189e-02
-6.7150519e-02
-1.1825842e-01
-1.4476978e-01
-1.5417299e-01
-1.4838495e-01
-1.2658517e-01
-9.2570299e-02
-5.2063101e-02
-1.7599331e-02
-7.2610256e-04
6.5862083e-03
6.1243682e-03
-1.2407131e-02
-3.3360199e-02
-4.2624857e-02
-4.6154955e-02
-4.3527019e-02
-3.4406909e-02
-2.3053220e-02
-1.0021605e-02
8.1828386e-03
2.6974467e-02
3.6240882e-02
4.0426828e-02
3.6107068e-02
1.4118932e-02
-1.0819686e-02
-2.7935806e-02
-4.4783743e-02
-6.6619604e-02
-8.6573614e-02
-9.6955925e-02
-9.8245297e-02
-9.0223061e-02
-7.4854270e-02
-5.5513930e-02
-3.0724546e-02
-5.3504848e-03
5.0220034e-03
-5.9177168e-03
-2.2239839e-02
-2.9116284e-02
-2.4947897e-02
-7.2129188e-03
2.2469673e-02
5.7750039e-02
9.9067662e-02
1.4627416e-01
1.7853678e-01
1.6687458e-01
1.2266267e-01
7.9474279e-02
4.6693287e-02
2.2228756e-02
3.6665929e-03
-1.0388542e-02
-1.5893652e-02
-1.2596634e-02
-9.6736989e-03
-1.7913985e-02
-3.4165194e-02
-4.7651087e-02
-5.5746178e-02
-5.4630334e-02
-4.5563366e-02
-3.6011653e-02
-2.2582145e-02
-3.8239647e-03
8.0444959e-03
-1.6719981e-04
-2.2844946e-02
-4.3469738e-02
-5.7389673e-02
-6.3872083e-02
-6.2762355e-02
-5.7275952e-02
-4.5870622e-02
-2.7161801e-02
-1.9922081e-03
2.1165781e-02
3.5336865e-02
3.6140511e-02
1.6133952e-02
-9.4663544e-03
-2.5657537e-02
-3.4228737e-02
-3.3229013e-02
-2.3076247e-02
-1.2184617e-02
-6.6332880e-03
-9.8320068e-04
9.7605432e-03
2.5418417e-02
4.9302688e-02
7.3726355e-02
8.8967523e-02
1.0528254e-01
1.2936594e-01
1.4553864e-01
1.2995131e-01
8.5730371e-02
4.0025367e-02
4.7574350e-03
-1.8912144e-02
-3.3538042e-02
-4.5447614e-02
-5.2439435e-02
-5.3113553e-02
-5.1294542e-02
-5.2865120e-02
-5.9507640e-02
-6.5996431e-02
-7.0560797e-02
-7.0524347e-02
-6.6843802e-02
-6.3748602e-02
-5.6744250e-02
-4.2718524e-02
-2.4207613e-02
-5.7311409e-03
1.0840974e-02
1.9473833e-02
1.2230974e-02
-1.1843661e-03
-1.3276935e-02
-2.5404331e-02
-3.2456491e-02
-3.1597796e-02
-2.4045664e-02
-1.5068235e-02
-7.7363798e-03
-6.3861617e-03
-1.8133961e-02
-3.2632612e-02
-3.9218657e-02
-3.7719524e-02
-2.7838705e-02
-1.2096359e-02
1.1756149e-03
2.3469731e-03
-2.7197067e-03
-4.3636896e-03
-3.1054559e-03
4.1635017e-03
1.8451628e-02
3.9693167e-02
7.4395458e-02
1.2156462e-01
1.6270084e-01
1.6668302e-01
1.3057780e-01
8.5506510e-02
4.8304811e-02
2.2162859e-02
4.2461774e-03
-1.1235119e-02
-1.8911347e-02
-1.7992248e-02
-1.8249137e-02
-3.0639343e-02
-5.2884240e-02
-7.0600226e-02
-7.8399293e-02
-7.6938100e-02
-7.0662638e-02
-6.2941971e-02
-4.7159172e-02
-2.2021234e-02
6.8413352e-03
3.3992014e-02
5.9643568e-02
8.4028203e-02
1.0249630e-01
1.1502981e-01
1.0770745e-01
7.4530024e-02
4.0359396e-02
1.8038684e-02
1.8469311e-03
-1.4530301e-02
-3.1524495e-02
-4.4089317e-02
-5.0908771e-02
-5.3323047e-02
-5.6366383e-02
-6.0805715e-02
-5.8766042e-02
-4.6787326e-02
-2.7460573e-02
-9.3325448e-03
3.6930798e-03
1.3826791e-02
1.9403150e-02
2.1245835e-02
1.9373017e-02
1.6798509e-02
1.8897313e-02
2.4993999e-02
2.9346894e-02
2.2822004e-02
7.2508611e-03
-6.3302768e-03
-1.5206108e-02
-2.4877820e-02
-4.1198221e-02
-6.0807799e-02
-7.4587483e-02
-7.9833005e-02
-7.8527657e-02
-7.5269899e-02
-7.0941386e-02
-6.2109039e-02
-4.8683325e-02
-3.2510655e-02
-1.8039462e-02
-3.9255957e-03
1.7677678e-02
4.6002744e-02
6.9683355e-02
7.8791247e-02
8.0284316e-02
8.3249491e-02
8.7507382e-02
9.0079542e-02
7.9472300e-02
5.6199101e-02
3.5842099e-02
2.4640106e-02
2.2119179e-02
2.1760804e-02
1.8922005e-02
1.4876988e-02
7.5616949e-03
-2.0845335e-03
-1.2542122e-02
-1.9733517e-02
-1.7218027e-02
-6.3150887e-03
5.7689919e-03
9.4728599e-03
5.0657093e-03
8.7608521e-04
-1.2970159e-03
-5.5827909e-03
-1.8306890e-02
-3.6562424e-02
-5.0737074e-02
-5.7249084e-02
-5.5747546e-02
-4.8658138e-02
-3.7858641e-02
-2.5837931e-02
-1.6629207e-02
-1.0778786e-02
-1.1818268e-02
-1.8037498e-02
-2.0372931e-02
-1.5890141e-02
-6.2426360e-03
3.6923044e-03
1.3072012e-02
2.4697142e-02
3.6970999e-02
4.4011242e-02
3.9678580e-02
2.9653088e-02
2.2100057e-02
1.8341917e-02
1.7282765e-02
1.5741978e-02
1.6490354e-02
1.6866978e-02
9.3915407e-03
-3.4428093e-03
-1.9262357e-02
-3.3320602e-02
-4.1532034e-02
-4.5166622e-02
-4.4385591e-02
-3.9966081e-02
-2.9860151e-02
-1.4175911e-02
3.2257451e-03
1.4873434e-02
1.1678749e-02
1.0800319e-03
-4.1926597e-03
-2.9011265e-03
3.4354000e-03
1.2747474e-02
2.3923015e-02
3.2278779e-02
3.1828920e-02
2.3174401e-02
5.6649200e-03
-1.5254726e-02
-3.0014281e-02
-3.6595989e-02
-3.4656355e-02
-2.5137132e-02
-9.8433659e-03
6.3246991e-03
1.8155164e-02
2.1195308e-02
1.0260487e-02
-5.7600109e-03
-1.5836325e-02
-1.9975759e-02
-1.9702476e-02
-1.6357863e-02
-8.4191713e-03
5.7425082e-03
2.5015687e-02
3.9049939e-02
3.4406814e-02
1.5944925e-02
-4.0983151e-03
-1.7265006e-02
-1.8743684e-02
-1.0160400e-02
7.6221011e-03
2.6353125e-02
3.6327491e-02
3.5517531e-02
2.0975181e-02
2.2702306e-03
-9.0957167e-03
-1.3513829e-02
-1.1769560e-02
-5.6704440e-03
5.0828561e-03
1.5668640e-02
1.7369829e-02
7.1730067e-03
-1.5839297e-02
-4.0471986e-02
-5.6035033e-02
-6.2984070e-02
-6.1585802e-02
-5.5342783e-02
-4.6212912e-02
-3.3032683e-02
-1.7538369e-02
-1.0783449e-02
-2.3411846e-02
-4.2350924e-02
-5.2977895e-02
-5.4902597e-02
-4.7720285e-02
-3.1885483e-02
-7.2734815e-03
2.3552721e-02
5.6180679e-02
7.8999377e-02
7.7521519e-02
6.4116008e-02
5.8383456e-02
6.4602120e-02
8.1912818e-02
1.0452043e-01
1.2956427e-01
1.4235748e-01
1.2803846e-01
9.6808248e-02
5.7299595e-02
2.0128523e-02
-6.2210517e-03
-2.3811584e-02
-3.1692781e-02
-3.1056095e-02
-2.3966382e-02
-1.7079595e-02
-1.5972503e-02
-2.3297226e-02
-4.5126824e-02
-7.3139443e-02
-9.5148942e-02
-1.0870935e-01
-1.1170072e-01
-1.0290939e-01
-8.3723325e-02
-6.4641582e-02
-5.3908259e-02
-5.1756276e-02
-5.9154164e-02
-6.9821048e-02
-7.7622465e-02
-7.8593325e-02
-6.7034084e-02
-4.2582201e-02
-5.7502051e-03
3.5183775e-02
7.0514982e-02
9.0004503e-02
8.5085421e-02
7.4664098e-02
7.6439027e-02
9.1700875e-02
1.1797039e-01
1.4217731e-01
1.5282725e-01
1.4339336e-01
1.1665078e-01
8.1578339e-02
4.1163064e-02
2.1741432e-03
-3.1374083e-02
-5.6232631e-02
-6.5716236e-02
-5.9247941e-02
-3.8140814e-02
-9.2546615e-03
1.9238758e-02
3.1192765e-02
1.2099563e-02
-1.8941125e-02
-4.2307442e-02
-5.6248795e-02
-5.9228698e-02
-5.1867334e-02
-3.3482051e-02
-1.0518585e-02
7.3058197e-03
1.0816283e-02
-7.7586026e-03
-3.5234212e-02
-5.7117634e-02
-6.9502378e-02
-6.9716837e-02
-6.0411548e-02
-4.3577089e-02
-2.3252860e-02
-4.3501864e-03
2.3135488e-03
-1.3434549e-02
-3.6752284e-02
-5.2139574e-02
-5.6374402e-02
-4.7508984e-02
-2.7327488e-02
4.0071207e-03
4.1643541e-02
7.8535059e-02
1.0111842e-01
9.7531985e-02
7.8868084e-02
5.2142693e-02
2.3896431e-02
8.3572669e-03
9.7002059e-03
2.7687652e-02
5.0466865e-02
6.5344914e-02
6.4014993e-02
3.9337821e-02
6.8722644e-03
-1.8273613e-02
-3.3061957e-02
-3.3097077e-02
-1.8697080e-02
9.2940477e-03
3.8108622e-02
5.4487334e-02
5.3056434e-02
2.8512351e-02
-3.9662399e-03
-3.2039902e-02
-5.3855782e-02
-6.3323390e-02
-5.9923745e-02
-4.6080651e-02
-3.0696925e-02
-2.0282718e-02
-1.9741538e-02
-3.4733826e-02
-5.6956270e-02
-7.8403984e-02
-9.2267607e-02
-9.0604910e-02
-7.3741906e-02
-4.3210785e-02
-5.7789619e-03
3.0847019e-02
5.1676434e-02
4.4572418e-02
2.7941985e-02
1.6630960e-02
1.4512398e-02
2.9405502e-02
6.1883451e-02
1.0627749e-01
1.4201501e-01
1.5629321e-01
1.4715036e-01
1.0910604e-01
6.1002412e-02
1.9179459e-02
-1.4572675e-02
-3.5013170e-02
-4.1368682e-02
-3.3669593e-02
-1.7681068e-02
2.7785401e-04
1.1331186e-02
6.0502491e-03
-8.6578311e-03
-2.4836340e-02
-3.5557523e-02
-3.3819891e-02
-1.9666966e-02
5.9933597e-03
3.6742377e-02
6.4446538e-02
7.3912991e-02
5.1651215e-02
1.1515199e-02
-2.9526335e-02
-6.4410080e-02
-8.8256119e-02
-1.0089420e-01
-1.0358072e-01
-1.0006180e-01
-9.2494577e-02
-8.5872009e-02
-8.7352593e-02
-9.3779109e-02
-9.8193475e-02
-9.4759377e-02
-7.9131747e-02
-5.1434003e-02
-1.5142961e-02
2.3786029e-02
5.9963754e-02
7.7478136e-02
6.3788533e-02
3.5998919e-02
1.4162989e-02
5.2063021e-03
1.1100489e-02
2.9041671e-02
5.3391231e-02
7.5467257e-02
9.0567100e-02
8.9063662e-02
6.2138333e-02
2.2964448e-02
-1.4406404e-02
-4.2103408e-02
-5.3378345e-02
-4.8224479e-02
-3.1664019e-02
-1.3320685e-02
4.6568798e-03
1.1739278e-02
-5.9518872e-03
-3.4663029e-02
-6.2861293e-02
-8.5906035e-02
-9.4947136e-02
-8.7996424e-02
-6.5990949e-02
-3.8702982e-02
-1.2998349e-02
4.1094371e-04
-1.0370105e-02
-2.7023525e-02
-3.6324463e-02
-3.7423493e-02
-2.1716764e-02
1.4556256e-02
6.9572346e-02
1.3485898e-01
2.0619816e-01
2.6727036e-01
3.0106612e-01
3.1497408e-01
2.9192594e-01
2.2069884e-01
1.3339110e-01
5.7761227e-02
2.3482418e-03
-3.3255428e-02
-5.0230816e-02
-6.6112719e-02
-9.9060026e-02
-1.3431324e-01
-1.5777959e-01
-1.6724732e-01
-1.5999756e-01
-1.3890821e-01
-1.0872238e-01
-7.7134642e-02
-5.0202140e-02
-3.7359124e-02
-4.5370468e-02
-6.1928126e-02
-7.6502595e-02
-8.3153705e-02
-7.5706616e-02
-5.5159238e-02
-2.5161864e-02
7.1979486e-03
3.8967257e-02
5.4910728e-02
3.8514261e-02
9.9705216e-03
-1.1232257e-02
-2.0714469e-02
-1.3955278e-02
7.9936096e-03
3.9043831e-02
6.9242993e-02
9.6335731e-02
1.0722977e-01
8.7843474e-02
5.4381396e-02
1.7727768e-02
-1.7744160e-02
-3.9705788e-02
-4.4243667e-02
-3.4873384e-02
-2.0381434e-02
-3.3819247e-03
6.7821920e-03
-2.5717705e-03
-1.9800360e-02
-3.8502775e-02
-5.7457620e-02
-6.5990022e-02
-6.0303134e-02
-4.2791074e-02
-1.9669117e-02
8.4506628e-03
2.4101758e-02
7.6352829e-03
-2.3946463e-02
-5.9622784e-02
-9.3500089e-02
-1.1120435e-01
-1.0938386e-01
-9.0154435e-02
-6.2970022e-02
-3.3795396e-02
-1.8090257e-02
-3.0895366e-02
-5.0775574e-02
-6.6136932e-02
-7.7634604e-02
-7.1390414e-02
-3.9419516e-02
1.9081304e-02
9.7133006e-02
1.8675531e-01
2.6750949e-01
3.2387330e-01
3.6211464e-01
3.5861792e-01
2.9901092e-01
2.1731399e-01
1.4762812e-01
1.0367109e-01
8.3969298e-02
8.3492661e-02
7.6930898e-02
4.3534895e-02
2.3770248e-05
-4.5812848e-02
-9.0033703e-02
-1.1815692e-01
-1.2616048e-01
-1.1616204e-01
-9.4516392e-02
-6.5338871e-02
-5.0014981e-02
-6.9280005e-02
-1.0094740e-01
-1.2777828e-01
-1.4923469e-01
-1.5940324e-01
-1.5754324e-01
-1.4570210e-01
-1.2653926e-01
-1.0030699e-01
-8.0204422e-02
-7.8961096e-02
-8.4551914e-02
-8.7256600e-02
-8.0804167e-02
-5.7821853e-02
-1.8766663e-02
3.3358081e-02
8.9099787e-02
1.3749961e-01
1.5965726e-01
1.4768962e-01
1.2397844e-01
9.4332991e-02
5.8379259e-02
3.3389094e-02
2.8051924e-02
3.6552380e-02
5.1290311e-02
7.6196108e-02
9.2914732e-02
7.8154340e-02
5.0193104e-02
2.1595413e-02
-5.4427799e-03
-1.8459935e-02
-1.2730626e-02
8.5002171e-03
3.8607063e-02
7.1350932e-02
8.1672835e-02
5.1820595e-02
8.1697649e-03
-3.0964087e-02
-6.4242599e-02
-8.4600495e-02
-9.0787783e-02
-8.6171222e-02
-7.5089447e-02
-5.9675062e-02
-5.0878280e-02
-5.9025568e-02
-7.6884957e-02
-9.8848823e-02
-1.1792175e-01
-1.2420887e-01
-1.1695908e-01
-1.0032723e-01
-7.9485856e-02
-5.5798820e-02
-4.3764849e-02
-5.5506197e-02
-7.2263943e-02
-7.9952577e-02
-7.5119153e-02
-5.1858185e-02
-1.0437676e-02
3.7788434e-02
8.0717893e-02
1.2552145e-01
1.6099956e-01
1.6979201e-01
1.6706845e-01
1.5421508e-01
1.3000122e-01
1.1325491e-01
1.1546675e-01
1.3525990e-01
1.5861782e-01
1.7287652e-01
1.6430876e-01
1.2758797e-01
8.1220130e-02
3.1459954e-02
-1.8583086e-02
-5.5361135e-02
-7.4397198e-02
-7.8527973e-02
-7.4492080e-02
-6.4230049e-02
-6.3517205e-02
-8.8257761e-02
-1.2075256e-01
-1.4751784e-01
-1.6544355e-01
-1.6817451e-01
-1.5548649e-01
-1.2818099e-01
-8.9317055e-02
-4.1918212e-02
-6.3007269e-03
-1.4614532e-03
-7.6944831e-03
-7.7403849e-03
1.5717384e-03
2.5687194e-02
6.4891847e-02
1.0557622e-01
1.3062711e-01
1.4881999e-01
1.5364814e-01
1.2688901e-01
8.8239657e-02
5.3650025e-02
2.7730883e-02
1.9108177e-02
2.7478538e-02
4.6732725e-02
6.8275725e-02
8.7967821e-02
8.9248453e-02
6.0067856e-02
1.8930208e-02
-2.3620559e-02
-6.3973878e-02
-9.3782209e-02
-1.1217654e-01
-1.2418704e-01
-1.3694460e-01
-1.4910007e-01
-1.5802711e-01
-1.6449917e-01
-1.6885367e-01
-1.7394407e-01
-1.7546395e-01
-1.6499645e-01
-1.4082373e-01
-1.0537449e-01
-6.4947266e-02
-2.3636294e-02
4.5944262e-03
8.6368109e-03
6.3048976e-03
1.0752322e-02
2.6127816e-02
5.9835411e-02
1.1317122e-01
1.7462006e-01
2.2463993e-01
2.5892322e-01
2.6423544e-01
2.3079046e-01
1.8126643e-01
1.2450287e-01
6.6089579e-02
2.4245212e-02
5.5580808e-03
7.9144823e-03
2.5405171e-02
5.4440666e-02
7.4377877e-02
6.6852122e-02
4.6141430e-02
1.3855254e-02
-2.9360981e-02
-6.3174494e-02
-7.7956252e-02
-7.5758858e-02
-6.2894550e-02
-4.3308464e-02
-3.4558958e-02
-5.2189490e-02
-7.9612656e-02
-1.0362549e-01
-1.1936439e-01
-1.2033872e-01
-1.0691068e-01
-8.3063883e-02
-5.5466058e-02
-2.5455575e-02
-9.7061111e-03
-2.4075149e-02
-4.7580984e-02
-6.3850986e-02
-7.0115331e-02
-6.0677478e-02
-3.4882681e-02
3.7352939e-03
4.9147522e-02
9.6448643e-02
1.2322322e-01
1.1486177e-01
9.1388786e-02
6.0344129e-02
2.4814342e-02
8.3368894e-04
-4.8266921e-03
2.9557553e-03
1.7189461e-02
4.1442754e-02
5.9836862e-02
5.2134315e-02
3.3099517e-02
9.6897803e-03
-1.7624912e-02
-3.4712200e-02
-3.3717062e-02
-1.6453321e-02
1.1009583e-02
4.5907494e-02
6.6459436e-02
5.2801034e-02
2.5785855e-02
1.8326020e-03
-1.4810445e-02
-1.6072179e-02
-1.2787474e-03
2.3320085e-02
4.5944668e-02
6.3978590e-02
6.5233459e-02
3.5350160e-02
-6.8934524e-03
-4.8554784e-02
-8.8364154e-02
-1.1774446e-01
-1.3272187e-01
-1.3660737e-01
-1.3674956e-01
-1.3266899e-01
-1.2168641e-01
-1.0363780e-01
-8.0871057e-02
-6.0822012e-02
-3.9010206e-02
-2.4541129e-03
5.2801648e-02
1.0584262e-01
1.3014701e-01
1.3879620e-01
1.3486536e-01
1.0325160e-01
6.1434956e-02
2.3527909e-02
-5.4379295e-03
-1.5953244e-02
-6.1720692e-03
1.9145397e-02
5.0136069e-02
8.0460974e-02
8.9405321e-02
6.2411364e-02
2.4642608e-02
-7.7036136e-03
-3.2404166e-02
-4.1095304e-02
-3.2126173e-02
-9.6641169e-03
1.9375440e-02
5.0300902e-02
6.1827824e-02
3.8040694e-02
9.0274215e-04
-3.5330729e-02
-6.7834623e-02
-8.8039301e-02
-9.4132591e-02
-8.8191070e-02
-7.4469402e-02
-5.5261712e-02
-4.7336761e-02
-6.5763368e-02
-9.1800735e-02
-1.0959850e-01
-1.1600930e-01
-1.0699003e-01
-8.2132891e-02
-4.4993303e-02
-3.5704149e-03
3.9825891e-02
7.9727790e-02
1.1165238e-01
1.3721314e-01
1.3926109e-01
1.1312865e-01
8.5796343e-02
7.5269720e-02
7.9594137e-02
9.1524361e-02
1.1009778e-01
1.1515476e-01
8.7839789e-02
4.9427977e-02
1.4746095e-02
-1.1909211e-02
-2.1236570e-02
-1.2405072e-02
3.2611564e-03
1.2324833e-02
2.1498332e-02
2.2301083e-02
-3.5843634e-03
-3.9690761e-02
-7.1528960e-02
-9.5391805e-02
-1.0452296e-01
-9.9130125e-02
-8.4514914e-02
-6.7755916e-02
-4.9051342e-02
-4.1873588e-02
-6.0513716e-02
-8.8972187e-02
-1.1674391e-01
-1.4017232e-01
-1.4905687e-01
-1.4044741e-01
-1.1788497e-01
-8.9118748e-02
-5.6166161e-02
-2.6757271e-02
-9.2644542e-03
4.1536382e-03
1.4213590e-02
2.5750725e-02
5.3861484e-02
1.0307279e-01
1.6914938e-01
2.3150073e-01
2.6804538e-01
2.6936300e-01
2.4218176e-01
2.0500622e-01
1.5060560e-01
7.6274408e-02
8.8761629e-03
-3.5499463e-02
-5.8536177e-02
-6.6630068e-02
-6.0897514e-02
-5.5842699e-02
-6.5885255e-02
-8.0674684e-02
-1.0189769e-01
-1.2827152e-01
-1.4124886e-01
-1.3282385e-01
-1.0480456e-01
-6.6674742e-02
-2.2396365e-02
1.2222274e-02
1.9369025e-02
1.4931477e-02
1.1462931e-03
-2.6876501e-02
-5.1067172e-02
-5.7275396e-02
-4.2907465e-02
-1.1680922e-02
3.7192683e-02
8.5882692e-02
1.1262031e-01
1.2454524e-01
1.1009837e-01
6.3733691e-02
1.8229478e-02
-4.0050352e-03
2.8720656e-04
2.7686502e-02
7.6000745e-02
1.2663212e-01
1.5954734e-01
1.8087075e-01
1.7735178e-01
1.4098982e-01
9.9758535e-02
7.3191338e-02
5.6886929e-02
3.3876680e-02
3.3318060e-03
-2.7965049e-02
-6.1120425e-02
-9.1646229e-02
-1.1781907e-01
-1.3473756e-01
-1.3345648e-01
-1.1370280e-01
-8.0471444e-02
-4.2148926e-02
-3.0895629e-03
1.7675832e-02
2.3270599e-03
-2.7753473e-02
-5.3562195e-02
-7.0075401e-02
-7.1584202e-02
-5.8961341e-02
-4.1051218e-02
-2.9167725e-02
-2.1111225e-02
-2.3367701e-02
-4.7688681e-02
-7.9690500e-02
-1.0482305e-01
-1.1968719e-01
-1.2102741e-01
-1.0955895e-01
-9.0003449e-02
-6.8273470e-02
-4.5435266e-02
-2.7834630e-02
-2.1965943e-02
-1.5448547e-02
4.6414571e-03
4.1374378e-02
9.4070970e-02
1.5570434e-01
2.0981548e-01
2.3602639e-01
2.3880285e-01
2.2746342e-01
1.9789384e-01
1.5780396e-01
1.0795726e-01
5.1586238e-02
4.8733265e-03
-2.7003788e-02
-4.6554921e-02
-6.0686222e-02
-7.2048781e-02
-8.1310887e-02
-9.0961729e-02
-9.8451832e-02
-1.0507780e-01
-1.0804555e-01
-9.9930661e-02
-7.9704217e-02
-4.9715025e-02
-1.8356861e-02
7.7303832e-03
1.6769424e-02
-5.1473456e-04
-2.9384563e-02
-5.9863595e-02
-8.7600638e-02
-1.0328491e-01
-1.0370629e-01
-8.8381359e-02
-6.1995577e-02
-2.9496048e-02
-6.3512946e-03
-6.7085204e-03
-1.6282792e-02
-2.3382616e-02
-2.2592652e-02
-4.9416170e-03
3.0525224e-02
8.1312003e-02
1.3470668e-01
1.7806191e-01
1.9562420e-01
1.7520272e-01
1.3443207e-01
8.6484146e-02
4.0067442e-02
1.0809734e-02
2.5945523e-03
1.2794274e-02
3.2073931e-02
5.2369358e-02
5.7177509e-02
3.1808183e-02
-6.2027973e-03
-4.0034977e-02
-6.2671439e-02
-6.6988056e-02
-5.4011658e-02
-2.8661551e-02
-2.9296939e-03
1.6262428e-02
2.1661970e-02
5.9147239e-03
-1.6794197e-02
-3.6170915e-02
-4.9992605e-02
-5.3424222e-02
-4.6512300e-02
-3.0576426e-02
-1.1246315e-02
7.9749374e-03
1.5937306e-02
1.1484830e-03
-2.1406492e-02
-3.9129151e-02
-5.0878101e-02
-5.2497721e-02
-4.2527894e-02
-2.2619693e-02
1.6949685e-03
2.6941907e-02
4.1465485e-02
3.4086922e-02
1.6200831e-02
-3.0563463e-03
-1.9556453e-02
-2.5809499e-02
-1.9829658e-02
-1.3857751e-03
2.3892295e-02
4.9523614e-02
6.1682228e-02
4.6778628e-02
1.8402267e-02
-8.8107655e-03
-2.9752097e-02
-3.9538695e-02
-3.8304250e-02
-2.8205978e-02
-1.4668489e-02
6.4252457e-06
6.8762755e-03
-3.9395107e-03
-2.0625778e-02
-3.3153163e-02
-3.8896875e-02
-3.3416464e-02
-1.6893587e-02
9.4481446e-03
3.8362793e-02
6.2195834e-02
6.6719312e-02
4.0287270e-02
2.6971283e-03
-2.8416307e-02
-5.0455836e-02
-6.0408615e-02
-5.8597910e-02
-4.5341424e-02
-2.6581746e-02
-9.0681441e-03
3.2029795e-04
-3.9714697e-03
-1.1208295e-02
-1.1208615e-02
-2.4569422e-03
1.7072520e-02
4.5883091e-02
8.0184902e-02
1.0681357e-01
1.1789599e-01
1.1352916e-01
8.8727427e-02
5.4764669e-02
2.2652386e-02
-5.6272448e-03
-2.4902536e-02
-3.5371916e-02
-3.7763999e-02
-3.5370046e-02
-3.1441123e-02
-3.0716182e-02
-3.8840399e-02
-4.8467369e-02
-5.4032828e-02
-5.3735513e-02
-4.2526122e-02
-2.0245306e-02
1.0287582e-02
3.8363250e-02
5.5153311e-02
5.3367218e-02
2.6312629e-02
-1.1333940e-02
-4.5992866e-02
-7.4202210e-02
-9.1824282e-02
-9.8996724e-02
-9.5474639e-02
-8.3351443e-02
-6.6810453e-02
-5.2009248e-02
-4.2570831e-02
-3.0763653e-02
-1.0860983e-02
1.8708130e-02
6.0036844e-02
1.0843738e-01
1.5584070e-01
1.8340017e-01
1.8042039e-01
1.5667096e-01
1.1779249e-01
7.3384696e-02
3.2121782e-02
-6.2477064e-04
-2.0433176e-02
-2.9773256e-02
-2.7359359e-02
-1.7229011e-02
-6.7840201e-03
-5.8518183e-03
-2.5029844e-02
-5.2779563e-02
-7.4802514e-02
-8.8768837e-02
-9.3008989e-02
-8.8551508e-02
-7.7635191e-02
-6.4009083e-02
-4.8984556e-02
-4.1291018e-02
-5.1324888e-02
-6.6587808e-02
-7.5398859e-02
-7.6630806e-02
-6.7109106e-02
-4.6633451e-02
-1.6745316e-02
1.6098796e-02
4.6995289e-02
6.8224294e-02
7.1674309e-02
7.2416130e-02
8.4094197e-02
1.0630568e-01
1.3360488e-01
1.5080361e-01
1.5486082e-01
1.5013398e-01
1.3465246e-01
1.0481974e-01
5.8916584e-02
1.3112210e-02
-2.0983460e-02
-4.6261420e-02
-6.1615077e-02
-6.6402322e-02
-6.0963538e-02
-4.7148535e-02
-2.7847635e-02
-1.7936395e-02
-3.0518122e-02
-4.9450570e-02
-5.9937152e-02
-6.1905616e-02
-5.4845356e-02
-4.0823362e-02
-2.3410072e-02
-7.7380387e-03
3.5488826e-03
4.9439545e-03
-1.2134844e-02
-3.8662410e-02
-6.1385201e-02
-7.7200139e-02
-8.5073696e-02
-8.6399499e-02
-8.1235067e-02
-7.1762222e-02
-6.2092718e-02
-5.3945390e-02
-4.9510919e-02
-4.4557878e-02
-3.3698383e-02
-1.4912663e-02
1.5813289e-02
5.6676866e-02
1.0293316e-01
1.4177256e-01
1.6216289e-01
1.6536743e-01
1.5210184e-01
1.3675752e-01
1.3028654e-01
1.2868335e-01
1.2550688e-01
1.1194157e-01
9.0062655e-02
6.3386202e-02
3.1020366e-02
-2.5323006e-03
-3.5010528e-02
-6.5294432e-02
-9.1294538e-02
-1.1227399e-01
-1.2550122e-01
-1.2975582e-01
-1.2510024e-01
-1.1371680e-01
-9.9309857e-02
-8.7741412e-02
-8.4339806e-02
-8.2290246e-02
-7.4556161e-02
-6.1543924e-02
-4.4261609e-02
-2.3584738e-02
2.4478148e-03
2.4359388e-02
3.1818876e-02
2.9969686e-02
1.8349255e-02
2.8205634e-04
-1.2421897e-02
-1.5531450e-02
-9.3822162e-03
4.7856526e-03
2.8024529e-02
5.6726576e-02
8.4604101e-02
9.7816041e-02
7.5916813e-02
3.0579576e-02
-1.1985058e-02
-4.5706923e-02
-7.1168805e-02
-8.7301568e-02
-9.0609687e-02
-7.9486711e-02
-5.6071473e-02
-2.4526148e-02
8.7885782e-03
4.5316260e-02
9.2133557e-02
1.4940998e-01
2.0219253e-01
2.1869108e-01
1.9025064e-01
1.4467019e-01
1.0097599e-01
5.9136019e-02
1.5850232e-02
-2.3976290e-02
-5.2491154e-02
-6.9938084e-02
-7.8685166e-02
-8.0748563e-02
-7.5468953e-02
-6.1687658e-02
-4.0053985e-02
-1.5071516e-02
2.3104008e-03
1.0418484e-02
1.7865926e-02
2.9753045e-02
4.4813217e-02
5.2374384e-02
4.6498550e-02
3.1486651e-02
1.1016106e-02
-8.5181627e-03
-2.3767622e-02
-3.5543848e-02
-4.4039299e-02
-4.9932188e-02
-5.3338862e-02
-5.7037371e-02
-6.1957802e-02
-6.7097134e-02
-7.3413258e-02
-7.7939382e-02
-7.8664496e-02
-7.7060251e-02
-7.3128427e-02
-6.6816998e-02
-5.8488315e-02
-5.0845309e-02
-4.3667686e-02
-3.6473726e-02
-3.2408809e-02
-2.6966880e-02
-1.5235463e-02
2.4507258e-03
2.6547106e-02
5.4623750e-02
7.7951781e-02
8.5603868e-02
7.9585963e-02
7.3467233e-02
7.2970474e-02
7.1382774e-02
5.8101398e-02
3.5950092e-02
1.8679319e-02
1.2209671e-02
1.5560810e-02
2.4245470e-02
3.5725487e-02
5.2761582e-02
7.5151549e-02
9.1019048e-02
8.3397453e-02
5.6758571e-02
3.0218827e-02
1.1318695e-02
-1.9765784e-03
-1.2218119e-02
-1.7637750e-02
-1.9360998e-02
-2.3079413e-02
-3.0823989e-02
-4.2200461e-02
-5.3420099e-02
-6.0560840e-02
-6.3532703e-02
-6.4808127e-02
-6.7141376e-02
-6.8145708e-02
-6.6103948e-02
-6.3329871e-02
-5.9475559e-02
-5.8248663e-02
-6.2767639e-02
-6.6137348e-02
-6.3718142e-02
-5.6635681e-02
-4.7988482e-02
-3.7151216e-02
-2.0760232e-02
-7.3423736e-04
1.8999891e-02
3.2036670e-02
3.8104765e-02
4.7423261e-02
6.4412442e-02
8.0723329e-02
7.9700919e-02
6.0568481e-02
4.2199683e-02
3.3920207e-02
3.2830711e-02
2.9992413e-02
2.1445841e-02
1.5879226e-02
1.8425714e-02
2.1338338e-02
1.5499247e-02
8.5626897e-03
9.7038904e-03
1.7856707e-02
3.4698387e-02
5.4056126e-02
6.8635094e-02
8.4947599e-02
1.0445513e-01
1.1028933e-01
8.5814332e-02
4.2826939e-02
2.4074687e-03
-2.9547453e-02
-4.9758974e-02
-5.8836081e-02
-6.2228255e-02
-6.0546079e-02
-5.4008387e-02
-4.8805694e-02
-5.1377648e-02
-5.7801799e-02
-6.1303583e-02
-6.1966425e-02
-5.8179350e-02
-4.9927066e-02
-4.0839439e-02
-2.9344004e-02
-1.5261044e-02
-4.2040801e-03
-1.9136610e-03
-6.3640221e-03
-1.0481915e-02
-1.1828768e-02
-7.5016019e-03
1.6737203e-03
1.0739776e-02
2.1950751e-02
3.6893038e-02
4.5999624e-02
3.7168087e-02
1.5386322e-02
-5.8348739e-03
-2.3167388e-02
-3.3178882e-02
-3.2732810e-02
-2.6053209e-02
-1.5784837e-02
-3.0595133e-03
6.9734527e-03
7.3263531e-03
4.1620536e-04
-7.1134152e-03
-1.4758978e-02
-1.8171284e-02
-1.7735474e-02
-1.9767902e-02
-2.0204713e-02
-1.4833567e-02
-6.5792231e-03
1.9405475e-03
1.1940554e-02
2.5714390e-02
4.2711820e-02
6.3402365e-02
7.5109073e-02
6.4529999e-02
4.6875219e-02
3.4964849e-02
2.4343478e-02
9.8268937e-03
-6.6199717e-03
-1.9926848e-02
-2.9295317e-02
-3.2736457e-02
-3.4149083e-02
-3.7314586e-02
-3.5668769e-02
-2.7617001e-02
-1.6444941e-02
-8.5151452e-03
-7.2857328e-03
-9.4671031e-03
-1.5125532e-02
-1.5671120e-02
-7.5829228e-03
1.4125105e-03
1.4087619e-02
3.1905284e-02
4.6751374e-02
5.1156383e-02
5.0014617e-02
5.1031163e-02
5.1713297e-02
5.2177193e-02
4.5544999e-02
2.4310356e-02
1.5698023e-03
-1.3041545e-02
-2.2964111e-02
-3.4702930e-02
-5.0479330e-02
-6.8162010e-02
-8.7610390e-02
-1.0403771e-01
-1.1741224e-01
-1.3269091e-01
-1.4551073e-01
-1.5149480e-01
-1.5115959e-01
-1.4820032e-01
-1.4277812e-01
-1.3376057e-01
-1.2445883e-01
-1.0910036e-01
-8.6394198e-02
-6.1145209e-02
-2.5782115e-02
2.6385867e-02
9.5204525e-02
1.7569527e-01
2.6417022e-01
3.4832531e-01
4.0277373e-01
4.1764034e-01
3.9108621e-01
3.3466172e-01
2.7954266e-01
2.3824921e-01
1.9311912e-01
1.2384823e-01
4.1096484e-02
-3.1684499e-02
-8.9376493e-02
-1.2971945e-01
-1.5027713e-01
-1.5472536e-01
-1.4538393e-01
-1.2467816e-01
-9.5222631e-02
-7.0589392e-02
-6.4092907e-02
-6.9591716e-02
-8.2208863e-02
-9.6254156e-02
-1.0541567e-01
-1.1123582e-01
-1.1251403e-01
-1.0921820e-01
-1.0402360e-01
-1.0134404e-01
-1.0280321e-01
-1.0229380e-01
-9.6206117e-02
-8.2350592e-02
-6.1678309e-02
-3.9650482e-02
-1.3384479e-02
2.0319665e-02
5.6947220e-02
8.8717834e-02
1.1451092e-01
1.3717703e-01
1.5431906e-01
1.7131189e-01
1.7502615e-01
1.4586736e-01
1.0583727e-01
7.3915543e-02
4.7045911e-02
2.1631458e-02
-4.4633754e-03
-2.8581593e-02
-4.8757477e-02
-6.0497815e-02
-6.4554270e-02
-6.7663788e-02
-6.7303471e-02
-6.1139847e-02
-5.2335896e-02
-4.7175269e-02
-4.8198097e-02
-4.8569151e-02
-4.4512838e-02
-3.2653830e-02
-1.0889169e-02
1.7577451e-02
5.1742360e-02
9.0130025e-02
1.2041328e-01
1.1890963e-01
8.5477591e-02
4.6518531e-02
1.4768204e-02
-8.7410027e-03
-2.4526065e-02
-3.6869400e-02
-4.6276324e-02
-5.2666772e-02
-5.8557018e-02
-6.6374600e-02
-7.5313315e-02
-7.8691657e-02
-7.2022626e-02
-5.4848624e-02
-2.9615112e-02
-1.6695139e-03
2.7650982e-02
5.6730745e-02
7.6791969e-02
7.5841484e-02
5.5160699e-02
3.0445183e-02
9.6670934e-03
-6.1936177e-03
-1.7001194e-02
-2.5725216e-02
-3.2091480e-02
-3.4167630e-02
-3.4438515e-02
-3.6928810e-02
-4.0586164e-02
-4.0776302e-02
-3.6688989e-02
-2.8188528e-02
-1.6595819e-02
-6.6484784e-03
3.5604969e-03
1.6251150e-02
2.7406972e-02
3.1226766e-02
2.7675628e-02
2.2606647e-02
1.4799525e-02
6.1891927e-03
2.0719870e-03
1.2650288e-04
8.3863070e-04
5.0192295e-03
1.0109123e-02
8.8874208e-03
-2.8416170e-03
-1.4858193e-02
-2.0007012e-02
-1.8412649e-02
-1.3494622e-02
-1.0440173e-02
-4.7552849e-03
6.8820289e-03
1.9136142e-02
2.0798012e-02
7.1032725e-03
-8.2370235e-03
-1.7089965e-02
-1.9920652e-02
-1.6889966e-02
-1.1732436e-02
-2.4813178e-03
1.2535055e-02
2.9082870e-02
4.2050625e-02
5.0515127e-02
5.9711123e-02
6.8990384e-02
7.7720412e-02
8.0185047e-02
6.5123350e-02
4.3707473e-02
2.9026267e-02
1.9500936e-02
8.7597352e-03
-7.7969041e-03
-2.6221830e-02
-4.3333632e-02
-5.6062211e-02
-6.2932464e-02
-6.7269688e-02
-6.8773918e-02
-6.6090316e-02
-5.9884628e-02
-5.2402842e-02
-4.6316609e-02
-3.9405806e-02
-3.0464876e-02
-1.9908922e-02
-6.6669670e-03
7.2860282e-03
2.2680638e-02
4.1690124e-02
6.2640307e-02
7.6455227e-02
7.6345685e-02
6.8076153e-02
5.2720955e-02
3.2069377e-02
1.5379509e-02
4.1854359e-03
-2.9795852e-03
-5.5385242e-03
-6.6222428e-03
-1.1985463e-02
-2.2870863e-02
-3.3345619e-02
-4.0820752e-02
-4.6462297e-02
-4.9297143e-02
-5.1041721e-02
-5.1173409e-02
-4.8105824e-02
-4.3405076e-02
-3.8073562e-02
-3.2005994e-02
-2.3447770e-02
-1.7456805e-02
-1.7532362e-02
-2.0075186e-02
-2.6489026e-02
-3.3612961e-02
-3.6655533e-02
-3.6327858e-02
-3.4751546e-02
-3.3244528e-02
-2.6328464e-02
-1.2528254e-02
5.3352251e-03
2.7307810e-02
5.1847648e-02
8.1970390e-02
1.1933940e-01
1.5625272e-01
1.7437418e-01
1.6468511e-01
1.4107296e-01
1.0921207e-01
7.2246295e-02
4.0878680e-02
1.7038108e-02
-1.5392129e-06
-1.0332287e-02
-1.6212637e-02
-2.2289992e-02
-3.3333121e-02
-4.8094931e-02
-6.0790857e-02
-6.6376609e-02
-6.5863323e-02
-6.4665790e-02
-6.1460128e-02
-5.3038872e-02
-4.2026224e-02
-3.4083378e-02
-3.2090560e-02
-3.0669052e-02
-2.7507068e-02
-2.3873794e-02
-1.8541822e-02
-1.4479019e-02
-1.1947221e-02
-7.2910265e-03
-6.4295884e-04
4.6107029e-03
6.3282778e-03
8.0038170e-03
8.7808820e-03
5.8947224e-03
3.5871661e-03
3.6657367e-03
7.4795908e-03
1.6051658e-02
2.4758009e-02
2.7611517e-02
2.3661143e-02
2.0409085e-02
2.0251858e-02
1.9600632e-02
1.7144435e-02
9.5474760e-03
-7.7155677e-04
-8.1548975e-03
-1.2891221e-02
-1.7614037e-02
-2.1539697e-02
-1.9497849e-02
-1.3935008e-02
-1.0083510e-02
-4.7125781e-03
3.0863325e-03
1.1302450e-02
1.8590541e-02
2.2272939e-02
2.2375049e-02
2.1270346e-02
2.1250842e-02
1.9385135e-02
1.0367379e-02
-4.1445497e-03
-2.0974186e-02
-3.6656981e-02
-4.8122681e-02
-5.7021739e-02
-6.4763718e-02
-7.1295973e-02
-7.5137435e-02
-7.7479187e-02
-8.0228404e-02
-8.1349036e-02
-8.0716557e-02
-7.5808502e-02
-6.2622578e-02
-4.1766496e-02
-1.6464523e-02
1.0563008e-02
4.1235903e-02
7.0373330e-02
9.1501072e-02
1.0483412e-01
1.0833564e-01
1.1226692e-01
1.2757105e-01
1.4898137e-01
1.6234705e-01
1.5558270e-01
1.3436675e-01
1.0451605e-01
6.6449126e-02
2.9888801e-02
-9.2036873e-04
-2.5802527e-02
-4.2176981e-02
-5.2435450e-02
-6.0937694e-02
-6.9288171e-02
-7.4896072e-02
-7.7798160e-02
-7.9254861e-02
-7.8247293e-02
-7.5731439e-02
-6.9198379e-02
-5.5957224e-02
-3.9260383e-02
-2.4236849e-02
-1.5453637e-02
-1.1492657e-02
-1.0553067e-02
-1.3316703e-02
-1.8232686e-02
-2.5029704e-02
-2.9176062e-02
-2.7261219e-02
-2.3210793e-02
-2.2725366e-02
-2.9284039e-02
-3.5672931e-02
-3.5128877e-02
-2.8727771e-02
-1.8577766e-02
-7.4173604e-03
9.0913849e-03
3.6500960e-02
7.2413818e-02
1.0954619e-01
1.3996683e-01
1.6513159e-01
1.7739121e-01
1.6601159e-01
1.3824298e-01
9.8005938e-02
5.5272117e-02
2.3204443e-02
1.1384952e-03
-1.6920551e-02
-3.6187791e-02
-5.4864281e-02
-7.1203531e-02
-8.5907570e-02
-9.6536744e-02
-1.0233421e-01
-1.0256812e-01
-9.4774921e-02
-8.1168946e-02
-6.5843384e-02
-5.1808610e-02
-3.9526004e-02
-2.8911277e-02
-2.1173111e-02
-1.4752002e-02
-9.4823398e-03
-3.9885324e-03
5.0388467e-03
1.6415064e-02
2.5670880e-02
2.6908769e-02
2.0875176e-02
1.5160927e-02
1.2667202e-02
9.1644106e-03
9.5556585e-04
-6.2296898e-03
-6.0466327e-03
-1.8293764e-03
-8.1822540e-04
-6.5692720e-03
-1.4240311e-02
-1.8338098e-02
-1.8029907e-02
-1.6106557e-02
-1.7247008e-02
-1.6590339e-02
-7.4867849e-03
6.6548060e-03
2.2591678e-02
4.1204985e-02
6.4913007e-02
8.5100205e-02
9.0540159e-02
8.4905632e-02
7.0952153e-02
5.5117604e-02
4.6384001e-02
4.2353871e-02
3.6650362e-02
2.4743854e-02
9.8662832e-03
-5.1553453e-03
-2.1966248e-02
-3.6971150e-02
-4.8618082e-02
-5.6630206e-02
-5.8593405e-02
-5.6578723e-02
-5.4909658e-02
-5.6110967e-02
-5.7489299e-02
-5.6217142e-02
-5.3485476e-02
-5.0995783e-02
-4.9731620e-02
-4.6172065e-02
-3.6453792e-02
-2.2678602e-02
-1.0669598e-02
-7.7439080e-03
-1.4225086e-02
-2.0914168e-02
-2.1471697e-02
-1.5388650e-02
-3.0794743e-03
1.6604374e-02
4.4586195e-02
7.5319911e-02
9.7576288e-02
9.5712720e-02
6.8538725e-02
3.5760618e-02
8.8432930e-03
-9.4076267e-03
-1.6735935e-02
-1.2579926e-02
2.9905237e-03
2.4463500e-02
4.5666130e-02
5.9992995e-02
6.6290830e-02
6.1715100e-02
4.0327578e-02
1.7479368e-02
5.6061306e-03
2.0241619e-03
6.4255420e-03
1.6106711e-02
2.2112578e-02
1.6891360e-02
5.5253562e-03
-4.7597255e-03
-1.3585744e-02
-2.2394975e-02
-3.3461993e-02
-4.5041646e-02
-5.3200894e-02
-5.7418074e-02
-6.0581295e-02
-6.6805726e-02
-7.4779401e-02
-8.1414518e-02
-8.6294637e-02
-8.8434844e-02
-8.7951118e-02
-8.4852368e-02
-7.7753235e-02
-6.5642258e-02
-4.9238348e-02
-3.2245107e-02
-1.5016904e-02
6.4253819e-03
3.1781750e-02
5.0649501e-02
5.6840425e-02
6.0774459e-02
7.1381880e-02
8.5262021e-02
9.2081945e-02
8.5278813e-02
7.3031158e-02
6.4167739e-02
5.8768893e-02
6.1860311e-02
7.5121544e-02
9.0191610e-02
1.0356000e-01
1.1313712e-01
1.0812211e-01
8.4611532e-02
5.4498907e-02
2.6972682e-02
4.0056357e-03
-1.5327014e-02
-3.5014732e-02
-5.3281183e-02
-6.5861296e-02
-7.3404124e-02
-7.8444415e-02
-8.3513530e-02
-8.7741764e-02
-8.7656246e-02
-8.2204829e-02
-7.1377475e-02
-5.5522132e-02
-3.4575340e-02
-7.8146329e-03
2.1875259e-02
5.1301413e-02
7.2109710e-02
7.7480794e-02
7.3658777e-02
6.4998097e-02
5.1178253e-02
3.2845011e-02
1.4451705e-02
6.2094878e-04
-1.0029074e-02
-1.9019911e-02
-2.7149773e-02
-3.4984772e-02
-4.1829381e-02
-4.8142312e-02
-5.2438155e-02
-5.4275584e-02
-5.6193209e-02
-5.6555657e-02
-5.4227219e-02
-5.0524549e-02
-4.7600610e-02
-4.7007188e-02
-4.8439782e-02
-5.3466557e-02
-5.9804087e-02
-6.3734671e-02
-6.4132495e-02
-5.8830795e-02
-4.7349565e-02
-2.9532013e-02
-8.6447672e-03
1.0821739e-02
3.0713246e-02
4.8432940e-02
5.9662275e-02
6.9213302e-02
8.4099151e-02
1.0809735e-01
1.3716457e-01
1.6194929e-01
1.6727551e-01
1.4738873e-01
1.1445740e-01
7.4607245e-02
3.6167297e-02
7.1107665e-03
-1.4379939e-02
-2.7461799e-02
-3.2150966e-02
-3.0290938e-02
-2.6949513e-02
-2.7218260e-02
-2.9451316e-02
-3.2297526e-02
-3.7760016e-02
-4.7219014e-02
-5.5904794e-02
-5.8460992e-02
-5.5648487e-02
-5.0110955e-02
-4.7136072e-02
-4.8989595e-02
-5.0158881e-02
-4.9261295e-02
-5.1967470e-02
-6.0331450e-02
-6.9353464e-02
-7.3972854e-02
-7.3424793e-02
-6.7444299e-02
-5.7690810e-02
-4.5794503e-02
-3.0561519e-02
-1.5317855e-02
-2.9053627e-03
1.1167620e-02
3.3589243e-02
6.7825322e-02
1.1134529e-01
1.6124127e-01
2.0327347e-01
2.2276919e-01
2.1668250e-01
1.7940055e-01
1.2644086e-01
8.0040087e-02
4.2876996e-02
1.4405352e-02
-4.9337863e-03
-1.6100957e-02
-2.4713873e-02
-3.5805241e-02
-4.9591062e-02
-6.6650863e-02
-8.2721914e-02
-9.2028297e-02
-9.4502521e-02
-9.0373498e-02
-8.0722731e-02
-6.7509249e-02
-5.5406334e-02
-4.8890706e-02
-4.8440546e-02
-5.7946615e-02
-7.4346676e-02
-8.8857432e-02
-1.0069936e-01
-1.0916250e-01
-1.1207725e-01
-1.0912324e-01
-1.0339857e-01
-9.9345501e-02
-9.4621991e-02
-8.5879013e-02
-7.1799599e-02
-4.9210877e-02
-1.6618150e-02
2.6052590e-02
7.8208468e-02
1.4050209e-01
2.0698324e-01
2.6716849e-01
3.0672912e-01
2.9549638e-01
2.3522101e-01
1.6840190e-01
1.1580958e-01
7.6170111e-02
4.9876574e-02
3.7477666e-02
3.4321979e-02
3.4979768e-02
3.5697280e-02
2.3356930e-02
-8.0111487e-03
-4.5370251e-02
-7.7624901e-02
-1.0053675e-01
-1.1191108e-01
-1.1227626e-01
-1.0547853e-01
-9.5136293e-02
-8.4827662e-02
-8.4540137e-02
-9.6813642e-02
-1.1085589e-01
-1.1769781e-01
-1.1370903e-01
-9.9472770e-02
-7.6610886e-02
-4.9586724e-02
-2.3670268e-02
1.7252254e-03
1.6562478e-02
1.5545310e-02
1.5689560e-02
2.6327958e-02
4.7408721e-02
7.8870947e-02
1.1904319e-01
1.5671725e-01
1.8174464e-01
1.9211185e-01
1.6937427e-01
1.1510207e-01
6.0740160e-02
1.9957865e-02
-9.0365385e-03
-2.8654166e-02
-3.8708115e-02
-4.1903177e-02
-4.2808000e-02
-4.3674967e-02
-5.3136218e-02
-7.0999035e-02
-8.7249969e-02
-9.8567919e-02
-1.0066442e-01
-8.9865124e-02
-6.7447069e-02
-4.0090893e-02
-1.4858967e-02
2.0842394e-03
-4.7766002e-03
-3.3243203e-02
-6.0941977e-02
-8.0721896e-02
-9.2935671e-02
-9.3549540e-02
-8.0029405e-02
-5.5702408e-02
-2.5443371e-02
7.5693471e-03
2.6067327e-02
2.2162163e-02
1.6955476e-02
2.1717462e-02
3.5637358e-02
6.2051583e-02
1.0430379e-01
1.6035748e-01
2.2287226e-01
2.7253315e-01
2.6952534e-01
2.0955969e-01
1.3535278e-01
6.8598088e-02
1.1784253e-02
-3.0290775e-02
-5.7419294e-02
-7.7930206e-02
-1.0069132e-01
-1.1919041e-01
-1.3174320e-01
-1.4236296e-01
-1.4630450e-01
-1.4541702e-01
-1.3950688e-01
-1.2126732e-01
-8.7792966e-02
-4.3529716e-02
4.8780230e-03
5.3810505e-02
8.0309516e-02
7.0315729e-02
4.9029535e-02
3.0765366e-02
1.6225648e-02
1.2831998e-02
2.4108979e-02
4.7098845e-02
7.5764636e-02
1.0499749e-01
1.1089640e-01
7.9257094e-02
3.5575808e-02
-4.5565550e-03
-3.9172958e-02
-6.2236910e-02
-7.1636695e-02
-6.8563178e-02
-5.5881982e-02
-3.5034389e-02
-1.9895484e-02
-2.0541705e-02
-2.4390085e-02
-2.9429474e-02
-3.7716728e-02
-3.6737743e-02
-1.9031972e-02
9.4376584e-03
4.1711084e-02
8.0208391e-02
1.0192341e-01
8.3817719e-02
5.0152951e-02
1.9929174e-02
-4.0431164e-03
-1.4526839e-02
-8.7773098e-03
6.0816651e-03
1.9501470e-02
3.2796772e-02
3.6199301e-02
1.8129695e-02
-7.0701789e-03
-2.9747602e-02
-4.8063111e-02
-5.5800196e-02
-5.0158995e-02
-3.3435809e-02
-1.0844730e-02
1.3396489e-02
1.9811403e-02
-3.4217545e-03
-3.5102559e-02
-6.3997458e-02
-9.0366194e-02
-1.0682282e-01
-1.0973220e-01
-1.0330812e-01
-9.3088636e-02
-7.6774128e-02
-6.3876939e-02
-6.5004605e-02
-6.8450480e-02
-6.6665906e-02
-5.5560243e-02
-2.7190057e-02
2.0421165e-02
8.3513929e-02
1.5432302e-01
2.2057254e-01
2.5261269e-01
2.4044066e-01
2.0969979e-01
1.6591862e-01
1.1048751e-01
6.3718269e-02
3.8086616e-02
3.0692952e-02
3.2806579e-02
4.1462763e-02
3.6856831e-02
2.3381263e-03
-4.0050435e-02
-7.4192464e-02
-9.7765302e-02
-1.0473551e-01
-9.3977607e-02
-7.1142151e-02
-4.5674739e-02
-1.9212043e-02
-9.3412144e-03
-3.2878917e-02
-6.7002830e-02
-9.5241755e-02
-1.1614508e-01
-1.2378176e-01
-1.1626921e-01
-9.4461518e-02
-6.2464578e-02
-2.4157161e-02
-7.8034246e-04
-9.7480738e-03
-2.8728849e-02
-3.9246770e-02
-3.7813025e-02
-1.8658692e-02
1.8825311e-02
6.3519643e-02
1.0216804e-01
1.4141221e-01
1.7284478e-01
1.8151871e-01
1.7713619e-01
1.5166614e-01
1.0145581e-01
5.1817896e-02
2.0311369e-02
6.3464525e-03
3.0261503e-03
1.0450820e-02
1.1532866e-02
-1.2375826e-02
-4.4263074e-02
-7.0777029e-02
-8.7552746e-02
-8.6718865e-02
-6.7520397e-02
-3.6042229e-02
-3.9325525e-03
2.7624301e-02
4.7714896e-02
4.1112481e-02
2.3217536e-02
4.6052027e-03
-1.2770144e-02
-1.9826398e-02
-1.4889843e-02
-7.0291128e-03
-1.0868630e-02
-2.4016766e-02
-3.8862866e-02
-5.6631306e-02
-7.1908102e-02
-8.1158793e-02
-8.1674407e-02
-6.8734536e-02
-4.2408070e-02
-4.7108566e-03
3.6966601e-02
7.7262378e-02
1.0157700e-01
9.7212236e-02
7.8866056e-02
5.2562229e-02
2.1089291e-02
-1.1310983e-03
-9.4437955e-03
-7.2272507e-03
-7.3517425e-04
7.9613139e-03
8.4280167e-03
-9.8575545e-03
-3.4331249e-02
-5.5029896e-02
-6.8186691e-02
-6.7885567e-02
-5.4110050e-02
-3.1338355e-02
-6.9457548e-03
1.6493152e-02
2.4793033e-02
4.3143756e-03
-2.6170932e-02
-4.9719427e-02
-6.3299842e-02
-6.3154546e-02
-4.9049849e-02
-2.3773070e-02
6.5365257e-03
3.7842641e-02
5.3829274e-02
4.0637058e-02
1.6786997e-02
-2.5741750e-03
-1.5540051e-02
-1.9776537e-02
-1.6163587e-02
-4.3257800e-03
1.4479652e-02
3.7361172e-02
5.6508282e-02
6.6724983e-02
6.9619398e-02
5.6527317e-02
2.9904097e-02
1.0728396e-02
7.7260580e-03
1.6417890e-02
3.1325178e-02
5.4015659e-02
6.6696366e-02
4.7560900e-02
1.3707880e-02
-1.9169105e-02
-4.7571026e-02
-6.3991235e-02
-6.6881274e-02
-5.9735286e-02
-4.7927142e-02
-3.0738993e-02
-1.7030479e-02
-1.9214456e-02
-2.8303891e-02
-3.6900662e-02
-4.0653314e-02
-3.2523409e-02
-1.3213096e-02
1.1032622e-02
2.9991421e-02
4.3447131e-02
4.5176234e-02
2.3995144e-02
-6.2715806e-03
-3.2688824e-02
-5.0002375e-02
-5.1570954e-02
-3.7761542e-02
-1.1721388e-02
1.4922160e-02
3.3940100e-02
4.1087594e-02
3.1996592e-02
2.0025012e-02
1.5876061e-02
2.2330988e-02
4.0753910e-02
6.2419302e-02
7.8852788e-02
8.4383178e-02
8.1559083e-02
6.8992346e-02
4.0513256e-02
8.1715828e-03
-1.8686476e-02
-3.6908740e-02
-4.1547059e-02
-3.3144251e-02
-1.2792059e-02
1.3093278e-02
3.8590883e-02
5.0513613e-02
3.6673016e-02
1.1212235e-02
-1.4427758e-02
-3.6656980e-02
-4.8350164e-02
-4.7437863e-02
-3.5835264e-02
-2.2086778e-02
-1.2780627e-02
-1.6565395e-02
-4.0239417e-02
-6.9012135e-02
-9.1067864e-02
-1.0618400e-01
-1.1144088e-01
-1.0683791e-01
-9.5316676e-02
-8.1304602e-02
-6.6071587e-02
-5.5448290e-02
-5.5235731e-02
-5.6093599e-02
-5.2998771e-02
-4.4218860e-02
-2.3919163e-02
8.0972469e-03
5.1108757e-02
1.0123739e-01
1.5213518e-01
1.8589105e-01
1.8770279e-01
1.7139310e-01
1.4970053e-01
1.3122093e-01
1.2180284e-01
1.1452271e-01
1.0197977e-01
7.8463418e-02
4.8981737e-02
1.7011198e-02
-2.0638979e-02
-5.5537724e-02
-8.1454902e-02
-9.6937820e-02
-9.9293400e-02
-8.9928667e-02
-6.9873543e-02
-4.5897362e-02
-2.5629665e-02
-1.7786091e-02
-2.9957439e-02
-4.8548963e-02
-6.1296902e-02
-6.6268155e-02
-6.1390245e-02
-4.8464945e-02
-2.6619292e-02
-2.0418109e-03
1.6930220e-02
2.3279707e-02
9.7328002e-03
-9.7608597e-03
-2.2040302e-02
-2.6209504e-02
-1.9823697e-02
-3.5692079e-03
2.2736325e-02
5.4922283e-02
8.6060186e-02
9.8673188e-02
7.8621032e-02
4.5239180e-02
1.4361362e-02
-1.0428388e-02
-2.2604304e-02
-2.1474461e-02
-7.9363056e-03
9.2018365e-03
2.0887361e-02
1.7813923e-02
-6.6462674e-03
-3.5052687e-02
-5.3932975e-02
-6.2713679e-02
-5.8870873e-02
-4.4344952e-02
-2.1335976e-02
3.8697837e-03
2.5000078e-02
3.0812803e-02
9.0960845e-03
-2.3877160e-02
-4.8817959e-02
-6.3282985e-02
-6.6989450e-02
-6.0010361e-02
-4.1440197e-02
-1.5725747e-02
1.0986766e-02
2.4763583e-02
1.3614680e-02
-3.5406845e-03
-8.7340662e-03
-2.1489689e-03
1.4628488e-02
3.9295790e-02
7.2639601e-02
1.0915847e-01
1.4210040e-01
1.5622281e-01
1.3122714e-01
8.4523121e-02
4.2189756e-02
1.1085738e-02
-5.1785298e-03
-7.5605237e-03
5.8604346e-04
1.1179537e-02
1.9102381e-02
1.7111631e-02
-5.5211543e-03
-3.6038093e-02
-5.8797231e-02
-7.2694878e-02
-7.8189456e-02
-7.7337663e-02
-7.0386046e-02
-5.9507944e-02
-4.6242479e-02
-3.1973413e-02
-2.2445454e-02
-1.3573989e-02
2.2551747e-03
2.4928748e-02
4.9230020e-02
6.2752427e-02
5.8194670e-02
4.0128481e-02
1.6045713e-02
-7.9872617e-03
-2.9518717e-02
-4.6043764e-02
-5.6676616e-02
-6.2262987e-02
-6.0662511e-02
-5.1991991e-02
-3.7179294e-02
-1.9956978e-02
-5.0401195e-03
4.2016920e-03
3.3003928e-03
-3.3248993e-03
-9.0319491e-03
-8.8039402e-03
3.5103125e-03
2.8864458e-02
6.5290040e-02
9.7107817e-02
1.1052989e-01
1.0823365e-01
8.7893453e-02
5.7771276e-02
3.1606340e-02
1.1257049e-02
-3.0474896e-03
-1.2601405e-02
-1.6576783e-02
-1.6922237e-02
-1.7669535e-02
-2.1241815e-02
-3.1636102e-02
-4.4322137e-02
-5.2212855e-02
-5.4438048e-02
-5.2640033e-02
-4.9863356e-02
-4.4311893e-02
-3.7046896e-02
-3.2451586e-02
-3.0882524e-02
-3.4612092e-02
-4.0925763e-02
-4.3459278e-02
-3.9764179e-02
-2.9690697e-02
-1.4638945e-02
6.0396687e-03
2.4571647e-02
3.2208348e-02
3.1365038e-02
2.1315695e-02
6.2465007e-03
-5.5976984e-03
-1.2600042e-02
-1.5561793e-02
-1.7114905e-02
-1.6242598e-02
-1.0808936e-02
2.4604600e-04
1.1686641e-02
1.3136062e-02
8.6817836e-03
8.1997909e-03
1.4692194e-02
2.9130622e-02
5.1196105e-02
8.1502306e-02
1.1732537e-01
1.5341366e-01
1.7670717e-01
1.6415140e-01
1.1869133e-01
6.6837769e-02
2.1544497e-02
-1.5939655e-02
-4.6601839e-02
-7.1074756e-02
-8.9761690e-02
-1.0350233e-01
-1.1445027e-01
-1.2671947e-01
-1.3850387e-01
-1.4514397e-01
-1.4450342e-01
-1.3571512e-01
-1.2070201e-01
-1.0008938e-01
-7.4452022e-02
-4.4683397e-02
-9.2385730e-03
3.1499668e-02
7.7302021e-02
1.2704813e-01
1.6798852e-01
1.7934675e-01
1.5623792e-01
1.1690376e-01
8.2091387e-02
5.5622668e-02
2.8345925e-02
-2.6686598e-03
-3.0558814e-02
-5.0303321e-02
-6.1496523e-02
-6.4471788e-02
-6.2474699e-02
-5.7369429e-02
-4.8943065e-02
-3.8186838e-02
-3.0348066e-02
-3.3320813e-02
-4.0371087e-02
-3.9312781e-02
-2.6725847e-02
-2.7647339e-03
2.7129447e-02
5.9289971e-02
8.5965640e-02
9.8707568e-02
9.3747950e-02
6.2087132e-02
1.5412889e-02
-2.4912447e-02
-5.3857179e-02
-7.2187684e-02
-8.2721024e-02
-8.5293725e-02
-8.1296549e-02
-7.5559671e-02
-7.0685697e-02
-6.9642259e-02
-6.8453618e-02
-5.9002819e-02
-4.2618381e-02
-2.7000120e-02
-1.6683573e-02
-6.0752755e-03
1.2720916e-02
4.2387418e-02
7.5078083e-02
9.9861770e-02
1.2436942e-01
1.5732157e-01
1.9317631e-01
2.1832115e-01
2.1820183e-01
1.9903094e-01
1.6949825e-01
1.2544028e-01
7.1959376e-02
1.6152296e-02
-3.4857921e-02
-7.4936636e-02
-1.0724429e-01
-1.3607354e-01
-1.6164643e-01
-1.7871284e-01
-1.8474423e-01
-1.8165232e-01
-1.7134433e-01
-1.6067293e-01
-1.5079382e-01
-1.3410407e-01
-1.1027296e-01
-8.4216873e-02
-5.9489675e-02
-3.3595997e-02
-3.8333094e-03
2.9472033e-02
6.5350826e-02
9.5786391e-02
1.2358234e-01
1.6138432e-01
2.1035289e-01
2.5465220e-01
2.6621992e-01
2.4402055e-01
1.9978363e-01
1.3329681e-01
6.7015273e-02
2.0363913e-02
-9.6532378e-03
-2.8063581e-02
-4.2847872e-02
-6.6115755e-02
-1.0026156e-01
-1.2990991e-01
-1.4522826e-01
-1.4799443e-01
-1.3733112e-01
-1.1363570e-01
-8.1019339e-02
-4.1244076e-02
2.6410150e-03
4.2822873e-02
7.2363080e-02
9.1968052e-02
9.4937007e-02
7.3591392e-02
4.0230551e-02
5.2822974e-03
-2.7454402e-02
-5.3892398e-02
-7.4166680e-02
-8.8772787e-02
-9.6215992e-02
-9.3671457e-02
-8.5524959e-02
-7.7290089e-02
-6.8434746e-02
-6.1630394e-02
-5.5304146e-02
-4.3630087e-02
-2.5817364e-02
-1.7409442e-03
2.9372781e-02
6.9258338e-02
1.1257134e-01
1.5155720e-01
1.8044490e-01
1.7648308e-01
1.3456368e-01
8.4102047e-02
3.7973352e-02
-8.8388253e-03
-5.4660520e-02
-9.2127627e-02
-1.1648029e-01
-1.2836932e-01
-1.2802737e-01
-1.2079717e-01
-1.1252151e-01
-9.8411269e-02
-7.6093782e-02
-4.9675765e-02
-2.9958847e-02
-2.2746576e-02
-1.5931798e-02
-5.1098219e-04
2.2620105e-02
4.8922148e-02
7.8009655e-02
1.1587864e-01
1.6301831e-01
2.0269419e-01
2.0326486e-01
1.6321516e-01
1.1586692e-01
7.8187934e-02
4.8080985e-02
1.9416007e-02
-1.0007352e-02
-3.4583154e-02
-5.1980137e-02
-6.4353459e-02
-7.3605666e-02
-7.5610003e-02
-6.9579089e-02
-6.0818208e-02
-5.0677811e-02
-4.3683760e-02
-4.0079601e-02
-3.1470367e-02
-1.4612779e-02
7.7358122e-03
3.3271040e-02
6.5277460e-02
8.8558148e-02
8.2618788e-02
6.1580459e-02
3.9629396e-02
1.9214026e-02
6.0658140e-03
-7.1110176e-04
-6.3622287e-03
-1.8900614e-02
-4.0052741e-02
-6.3533361e-02
-8.6465912e-02
-1.0483158e-01
-1.1707310e-01
-1.2400765e-01
-1.2300796e-01
-1.1419636e-01
-1.0050787e-01
-8.7104580e-02
-7.4229880e-02
-5.6580154e-02
-3.2369309e-02
-4.9611077e-03
1.9792068e-02
4.4237487e-02
7.3593748e-02
1.0119453e-01
1.1178466e-01
9.8499745e-02
7.4329649e-02
5.4814757e-02
4.2783791e-02
3.5475310e-02
3.0738151e-02
3.0135863e-02
3.7622937e-02
5.1728721e-02
6.0153735e-02
5.0340391e-02
3.0220605e-02
1.0406533e-02
-1.0807077e-02
-2.5491222e-02
-2.6891339e-02
-1.7827484e-02
1.9711761e-03
3.0161050e-02
5.9116348e-02
7.8572849e-02
8.9411698e-02
9.3040637e-02
8.3111264e-02
6.5292959e-02
3.8216454e-02
3.6615098e-04
-3.5956019e-02
-6.6214476e-02
-9.1544091e-02
-1.1089104e-01
-1.2172820e-01
-1.2290466e-01
-1.1594481e-01
-1.0668816e-01
-1.0400057e-01
-1.0607235e-01
-1.0183261e-01
-8.8406520e-02
-7.1028630e-02
-5.7608948e-02
-5.0741954e-02
-4.5289956e-02
-3.7758585e-02
-2.9224389e-02
-2.4368946e-02
-1.9438618e-02
-4.3913656e-03
2.2965882e-02
6.0971227e-02
1.0548377e-01
1.5383748e-01
1.9669642e-01
2.2274323e-01
2.3086856e-01
2.1423002e-01
1.8084034e-01
1.5094777e-01
1.2711286e-01
1.0313408e-01
7.2765095e-02
3.8661144e-02
6.8718381e-03
-2.3128389e-02
-4.7110830e-02
-6.1713729e-02
-6.8763848e-02
-6.8356138e-02
-6.2308974e-02
-5.6553516e-02
-5.8045352e-02
-6.4991522e-02
-7.1141512e-02
-7.4670985e-02
-7.4597339e-02
-7.3420044e-02
-7.3205054e-02
-7.0365117e-02
-6.3055077e-02
-5.2341667e-02
-4.0864439e-02
-2.9523608e-02
-2.0784891e-02
-1.9294695e-02
-2.3090920e-02
-3.1529280e-02
-4.4683554e-02
-5.6993018e-02
-6.3680345e-02
-6.2731071e-02
-5.4856298e-02
-4.1812769e-02
-2.4363904e-02
-3.1294203e-03
2.0544656e-02
4.1605084e-02
5.6997153e-02
7.1288508e-02
8.5463086e-02
9.1062358e-02
7.7277107e-02
4.5643130e-02
1.1023540e-02
-1.7107837e-02
-3.8614667e-02
-5.7544213e-02
-7.4229164e-02
-8.2134143e-02
-7.8093160e-02
-6.3860363e-02
-4.4898386e-02
-2.4272916e-02
-2.5761186e-03
1.6013097e-02
2.6557923e-02
2.1746168e-02
6.5580569e-03
-2.6451052e-03
4.0151254e-05
1.3431359e-02
3.4916101e-02
6.3713499e-02
9.7311237e-02
1.3139104e-01
1.5564337e-01
1.4533755e-01
1.0144290e-01
5.4185616e-02
1.7687431e-02
-8.5261252e-03
-2.9562406e-02
-4.8796536e-02
-6.2220800e-02
-6.7981994e-02
-6.6640937e-02
-6.1139051e-02
-5.0561522e-02
-2.9169838e-02
1.2812883e-03
3.2657481e-02
4.9793506e-02
4.7830528e-02
3.7908012e-02
2.5330499e-02
1.4485528e-02
6.8588197e-03
3.3888734e-03
1.0033229e-02
2.7640846e-02
4.9644285e-02
5.6794557e-02
3.9895370e-02
1.3225358e-02
-1.3493519e-02
-3.5765392e-02
-5.0192746e-02
-5.7047065e-02
-5.5567270e-02
-4.7210170e-02
-3.2736465e-02
-1.4896057e-02
4.3298227e-03
2.4437816e-02
4.2250781e-02
5.0532815e-02
3.9988537e-02
1.9003670e-02
1.4967253e-03
-9.1336131e-03
-1.1384207e-02
-7.0174560e-03
2.0281204e-03
1.0894737e-02
1.4441787e-02
1.2340013e-02
1.9682812e-03
-1.3506122e-02
-2.8752628e-02
-4.2508193e-02
-5.3954289e-02
-6.4681003e-02
-7.2188516e-02
-7.5603672e-02
-7.7796749e-02
-8.3202128e-02
-9.6932862e-02
-1.1164436e-01
-1.1881537e-01
-1.1752030e-01
-1.0729652e-01
-9.0791987e-02
-6.8136522e-02
-3.6410029e-02
4.2391713e-03
4.8766557e-02
9.0827658e-02
1.3203960e-01
1.7318028e-01
2.0379359e-01
2.0951745e-01
1.8273361e-01
1.3539503e-01
9.0277992e-02
5.4079772e-02
1.7921432e-02
-2.2784060e-02
-5.9816384e-02
-8.5066904e-02
-9.7770352e-02
-9.7843601e-02
-8.6963536e-02
-6.6011831e-02
-3.8351648e-02
-8.5249619e-03
2.1228219e-02
4.7384695e-02
7.2545558e-02
9.7397989e-02
1.1823339e-01
1.3169771e-01
1.3555196e-01
1.3827877e-01
1.3607754e-01
1.1748446e-01
8.9027115e-02
5.5486687e-02
2.1128585e-02
-9.7054856e-03
-3.7346434e-02
-5.9698389e-02
-7.5926953e-02
-8.4563352e-02
-9.0100782e-02
-9.7716651e-02
-1.0442441e-01
-1.0979090e-01
-1.1397562e-01
-1.1666059e-01
-1.1796384e-01
-1.1479247e-01
-1.0513255e-01
-8.9187238e-02
-7.1285217e-02
-5.4815028e-02
-4.0757037e-02
-3.1002951e-02
-2.1896586e-02
-1.1297071e-02
-7.5527891e-04
8.3713804e-03
1.2045752e-02
1.1772372e-02
8.9927737e-03
1.2600539e-03
-8.1963189e-03
-1.5182602e-02
-1.4789465e-02
-3.4047537e-03
1.8824651e-02
5.2578673e-02
9.4434591e-02
1.4064236e-01
1.7587736e-01
1.8522706e-01
1.7255593e-01
1.3863440e-01
9.3819078e-02
5.1022298e-02
1.4248685e-02
-1.1294893e-02
-2.4749949e-02
-2.5229168e-02
-1.8089565e-02
-1.0773774e-02
-9.8516380e-03
-2.1546673e-02
-3.9811515e-02
-5.8993667e-02
-7.5267601e-02
-8.3600339e-02
-8.4179052e-02
-7.6478592e-02
-6.5354750e-02
-5.7185722e-02
-5.5810947e-02
-6.4743961e-02
-7.6010648e-02
-8.2592387e-02
-8.3852066e-02
-7.7284371e-02
-6.3070688e-02
-4.0674438e-02
-1.5858073e-02
4.3381555e-03
2.0257574e-02
2.9733953e-02
3.8627249e-02
5.6549365e-02
8.5745985e-02
1.2231905e-01
1.5412716e-01
1.7756888e-01
1.9144714e-01
1.8969526e-01
1.6756170e-01
1.2316095e-01
6.9457155e-02
1.7226553e-02
-2.7786269e-02
-5.8792935e-02
-7.5906043e-02
-8.0086576e-02
-7.3998556e-02
-6.0355505e-02
-4.8704972e-02
-5.1147535e-02
-6.2735549e-02
-7.4403825e-02
-8.1306858e-02
-7.8792821e-02
-6.6901559e-02
-4.9295386e-02
-3.6093238e-02
-3.1584387e-02
-3.4366559e-02
-4.8117648e-02
-6.6631111e-02
-8.0963525e-02
-8.5886451e-02
-7.7196159e-02
-5.6198685e-02
-2.4211972e-02
1.0479383e-02
3.8765819e-02
5.0685735e-02
3.8272469e-02
1.6333868e-02
-1.6483539e-03
-9.2130153e-03
2.3815639e-03
3.4126831e-02
8.2103039e-02
1.3185421e-01
1.7170423e-01
1.8907436e-01
1.7394831e-01
1.4073474e-01
9.5717412e-02
4.7254024e-02
1.2864380e-02
-5.2697989e-03
-7.1997089e-03
-8.0882869e-04
4.7702533e-03
2.9145205e-04
-2.3620745e-02
-5.3095995e-02
-7.7333968e-02
-9.4745937e-02
-9.8633069e-02
-8.7789931e-02
-6.4378697e-02
-3.5729149e-02
-7.6258106e-03
2.7237061e-03
-2.0768125e-02
-5.5201668e-02
-8.0440160e-02
-9.5423808e-02
-9.6761472e-02
-8.4446670e-02
-6.0128177e-02
-2.8636579e-02
6.1677039e-03
2.8249616e-02
2.1071218e-02
1.0421026e-03
-1.4748512e-02
-2.1772863e-02
-1.4060273e-02
1.0763145e-02
5.1696010e-02
9.4154841e-02
1.2441096e-01
1.3092974e-01
1.0534651e-01
6.5296926e-02
2.1512021e-02
-2.1037722e-02
-4.8231128e-02
-5.4818920e-02
-4.2399024e-02
-1.9728181e-02
8.6251819e-03
2.9164510e-02
2.7003581e-02
1.3844980e-02
-4.3795321e-03
-2.1549960e-02
-2.2781523e-02
-7.0311350e-03
9.9067209e-03
5.8606919e-03
-1.4043775e-02
-3.0428563e-02
-3.7040376e-02
-3.8746007e-02
-4.7817314e-02
-5.8804770e-02
-5.4091291e-02
-2.7941761e-02
1.3221412e-02
5.3911911e-02
8.8753595e-02
1.0964974e-01
1.0833314e-01
9.7829593e-02
7.7997148e-02
4.9224521e-02
2.9954385e-02
3.0907315e-02
4.9416464e-02
6.9580223e-02
8.4278337e-02
8.6843252e-02
6.6982672e-02
3.4566138e-02
-8.7297156e-03
-6.1589451e-02
-1.0601409e-01
-1.3217244e-01
-1.4278170e-01
-1.4510416e-01
-1.3951058e-01
-1.3688233e-01
-1.4933852e-01
-1.6527798e-01
-1.7933728e-01
-1.8995111e-01
-1.8777651e-01
-1.6677813e-01
-1.2594698e-01
-7.2102861e-02
-1.1894775e-02
3.6756815e-02
6.2445028e-02
7.7806810e-02
7.8158463e-02
6.2481069e-02
5.1342537e-02
5.8429142e-02
8.6851753e-02
1.2214896e-01
1.5625586e-01
1.8727826e-01
2.1037025e-01
2.2654056e-01
2.0846652e-01
1.4443042e-01
7.2852090e-02
2.5667729e-02
9.6578510e-03
2.1526492e-02
6.1883495e-02
1.0930131e-01
1.3961166e-01
1.5762583e-01
1.4358781e-01
8.6846384e-02
2.3589036e-02
-1.8068885e-02
-3.8170034e-02
-4.4999192e-02
-3.3848651e-02
-1.9502756e-02
-2.4357445e-02
-3.5969219e-02
-5.4570692e-02
-8.5689838e-02
-1.1037917e-01
-1.1620009e-01
-1.0367150e-01
-7.7333913e-02
-4.0336982e-02
-1.5771255e-02
-2.4106745e-02
-4.4865640e-02
-6.1477870e-02
-6.8611310e-02
-5.8746968e-02
-3.3741400e-02
-2.3139850e-04
3.3901314e-02
6.1427717e-02
6.2643252e-02
2.9533497e-02
-1.5329622e-02
-6.0625637e-02
-1.0225685e-01
-1.3058192e-01
-1.4333703e-01
-1.4553206e-01
-1.4534631e-01
-1.4292761e-01
-1.3514786e-01
-1.1925994e-01
-9.4283208e-02
-7.0349168e-02
-5.0982681e-02
-2.3625425e-02
2.0803969e-02
7.1758236e-02
1.1604911e-01
1.5740448e-01
1.7709325e-01
1.6050030e-01
1.3408254e-01
1.0642332e-01
7.4652223e-02
5.1927592e-02
4.9204286e-02
6.4383190e-02
8.8849421e-02
1.1597347e-01
1.2168093e-01
9.6412311e-02
6.1549540e-02
1.3719027e-02
-5.2178104e-02
-1.1397724e-01
-1.5473251e-01
-1.7351426e-01
-1.7542871e-01
-1.6697748e-01
-1.7253939e-01
-2.0384725e-01
-2.3690651e-01
-2.6341285e-01
-2.8426370e-01
-2.8686325e-01
-2.6221418e-01
-2.0765035e-01
-1.2461412e-01
-2.4020764e-02
6.1329906e-02
1.2055644e-01
1.8231119e-01
2.4500878e-01
2.8591605e-01
3.0481176e-01
3.2027569e-01
3.4774290e-01
3.8178306e-01
4.0903874e-01
4.0899963e-01
3.8378794e-01
3.5187946e-01
2.9359498e-01
1.9601527e-01
9.0230926e-02
9.8947717e-03
-3.6465343e-02
-5.3538030e-02
-4.4737032e-02
-3.7019544e-02
-5.1163941e-02
-7.2153662e-02
-1.0757432e-01
-1.6471413e-01
-2.1596241e-01
-2.4290280e-01
-2.4856952e-01
-2.3766838e-01
-2.0900109e-01
-1.8030486e-01
-1.6873233e-01
-1.5965666e-01
-1.4796601e-01
-1.3649176e-01
-1.1141516e-01
-6.3637119e-02
-8.8072404e-03
3.6489971e-02
8.1804338e-02
1.1857457e-01
1.3048024e-01
1.3372634e-01
1.3438719e-01
1.3046952e-01
1.3396077e-01
1.5123836e-01
1.6350995e-01
1.5340133e-01
1.3853705e-01
1.3173654e-01
1.2055523e-01
9.0825591e-02
4.6147797e-02
1.6555203e-03
-3.3450705e-02
-5.9243258e-02
-8.2065826e-02
-1.0435726e-01
-1.2163850e-01
-1.3173055e-01
-1.3924994e-01
-1.4808813e-01
-1.5840365e-01
-1.6714357e-01
-1.6837591e-01
-1.5876025e-01
-1.3929966e-01
-1.1315089e-01
-8.6514508e-02
-7.0250193e-02
-6.9448569e-02
-7.5445700e-02
-7.7646209e-02
-7.2117052e-02
-5.8852306e-02
-3.6355469e-02
-6.1497781e-03
2.8498337e-02
6.2088201e-02
7.7415688e-02
6.9522169e-02
5.5063846e-02
4.8284171e-02
5.5326332e-02
7.9208970e-02
1.2322870e-01
1.8326943e-01
2.5153794e-01
3.1136730e-01
3.2781854e-01
2.8422781e-01
2.0317047e-01
1.2080903e-01
5.4555473e-02
5.6322717e-03
-2.7451423e-02
-5.1292730e-02
-6.9967076e-02
-7.9677747e-02
-8.2316823e-02
-8.8505554e-02
-9.9775955e-02
-1.0667889e-01
-1.0589489e-01
-1.0275087e-01
-9.8879500e-02
-9.2171703e-02
-8.0662812e-02
-6.3735889e-02
-4.5484921e-02
-3.1145598e-02
-2.1939098e-02
-1.3763434e-02
-2.4987636e-03
1.0754480e-02
2.5112933e-02
3.3740694e-02
2.9217021e-02
1.3458818e-02
-1.2447208e-02
-4.0477710e-02
-6.3398137e-02
-8.4569656e-02
-1.0529556e-01
-1.2513919e-01
-1.4498821e-01
-1.6313136e-01
-1.7573747e-01
-1.8059912e-01
-1.7745073e-01
-1.7020517e-01
-1.6110943e-01
-1.4375031e-01
-1.1321552e-01
-7.0329658e-02
-1.4255358e-02
4.9291797e-02
1.1238127e-01
1.7434120e-01
2.3455876e-01
2.9732677e-01
3.6407457e-01
4.2255549e-01
4.5574593e-01
4.4773464e-01
3.9449832e-01
3.0835866e-01
2.0975586e-01
1.1778285e-01
3.8989907e-02
-2.3634565e-02
-6.8923942e-02
-1.0124560e-01
-1.2127232e-01
-1.2952841e-01
-1.3225698e-01
-1.3851472e-01
-1.4934683e-01
-1.5938808e-01
-1.6740416e-01
-1.7194806e-01
-1.7174725e-01
-1.6770739e-01
-1.5871283e-01
-1.4505878e-01
-1.2849732e-01
-1.0986318e-01
-8.8952366e-02
-6.6746417e-02
-4.5988889e-02
-2.7943357e-02
-1.2121597e-02
4.0684574e-03
2.3563837e-02
4.3892703e-02
6.0177649e-02
7.0091141e-02
7.4408329e-02
7.6728591e-02
7.9092527e-02
8.1052955e-02
8.1416193e-02
8.2456370e-02
8.7089027e-02
8.9968236e-02
8.0148360e-02
5.6705352e-02
3.1670676e-02
1.2650771e-02
-4.4020775e-04
-1.2009383e-02
-2.6214135e-02
-3.7937540e-02
-4.1862020e-02
-4.0172405e-02
-3.8074663e-02
-3.9690186e-02
-4.2777313e-02
-4.4223638e-02
-4.4454690e-02
-4.3304827e-02
-4.1265651e-02
-3.6665785e-02
-2.6403954e-02
-1.1584385e-02
3.2091593e-03
1.2476880e-02
1.5297975e-02
1.6244119e-02
1.8336620e-02
1.8152142e-02
1.2194385e-02
5.7881643e-03
2.3801949e-03
-2.0649617e-03
-8.5826950e-03
-1.5182953e-02
-1.9078293e-02
-1.8271849e-02
-1.3623318e-02
-6.4708246e-03
1.8291338e-03
1.2845289e-02
2.9790416e-02
4.9276604e-02
6.0792220e-02
5.8503373e-02
4.9638214e-02
3.9695294e-02
2.6726509e-02
1.3336157e-02
1.6597071e-03
-8.1669036e-03
-1.3438289e-02
-1.4659368e-02
-1.5028953e-02
-1.6652303e-02
-1.8133373e-02
-2.1126800e-02
-2.9903602e-02
-3.8616194e-02
-4.2905978e-02
-4.4580719e-02
-4.2834714e-02
-3.8551956e-02
-3.3636565e-02
-2.6970638e-02
-1.6380598e-02
-5.5303457e-03
1.9757597e-03
1.0288192e-02
2.0752920e-02
3.1936093e-02
4.4286286e-02
5.5009910e-02
5.6369464e-02
4.3243608e-02
2.1230640e-02
-2.5670679e-04
-1.7184894e-02
-2.9789459e-02
-3.9515054e-02
-4.7063821e-02
-5.1545542e-02
-5.4575212e-02
-5.9189480e-02
-6.4646421e-02
-6.7182742e-02
-6.4575949e-02
-5.6690441e-02
-4.2311230e-02
-2.1602803e-02
3.8194506e-03
3.2875551e-02
6.0054886e-02
7.4640260e-02
7.4488541e-02
7.0968663e-02
6.9638057e-02
6.7771374e-02
6.0008187e-02
4.1256374e-02
1.8848034e-02
1.5694694e-03
-1.0501695e-02
-1.9578591e-02
-2.7266907e-02
-3.3462993e-02
-3.7522147e-02
-3.7602129e-02
-3.1930025e-02
