-2.7246139e-01
-4.9240121e-01
-6.6568273e-01
-7.7077681e-01
-8.0673175e-01
-7.9633863e-01
-7.7528416e-01
-7.4318612e-01
-7.0617366e-01
-6.7879334e-01
-6.5207812e-01
-6.3666797e-01
-6.2134940e-01
-5.6704046e-01
-4.5858760e-01
-3.1426035e-01
-1.7060630e-01
-4.3329150e-02
4.9063747e-02
1.0326995e-01
1.4236369e-01
1.4812099e-01
1.1766972e-01
9.3778929e-02
1.0822751e-01
1.4712439e-01
1.6802024e-01
1.7141824e-01
1.6918765e-01
1.6390601e-01
1.5869167e-01
1.1802605e-01
3.3710219e-02
-4.5763328e-02
-8.5337915e-02
-9.4441051e-02
-9.6816592e-02
-8.8182084e-02
-7.4885292e-02
-6.7767399e-02
-6.4188737e-02
-8.4273088e-02
-1.1988112e-01
-1.3384432e-01
-1.1158063e-01
-7.6132487e-02
-5.8573061e-02
-4.5306800e-02
-3.3540617e-02
-2.9641833e-02
-2.6207458e-02
-3.9528238e-02
-6.1726497e-02
-6.2472754e-02
-2.5942314e-02
3.1336361e-02
8.0331835e-02
1.2338797e-01
1.4132106e-01
1.2663118e-01
1.0721778e-01
8.1494208e-02
6.2994553e-02
8.0647533e-02
1.3894985e-01
2.0963248e-01
2.6179966e-01
2.9545947e-01
2.8860429e-01
2.3764040e-01
1.6685925e-01
6.6675796e-02
-4.9783534e-02
-1.4212433e-01
-1.8912846e-01
-2.0617006e-01
-2.1853421e-01
-2.1941077e-01
-2.0002697e-01
-1.5975397e-01
-1.1508120e-01
-9.2432953e-02
-8.4569866e-02
-7.2732625e-02
-4.2701384e-02
-8.3062765e-03
6.5232056e-03
1.6291323e-02
2.5875110e-02
3.7453021e-02
4.3871551e-02
1.9234859e-02
-2.0341559e-02
-4.6417110e-02
-4.4315407e-02
-3.4322622e-02
-4.6421682e-02
-6.2416553e-02
-7.0876488e-02
-7.0211071e-02
-6.0865195e-02
-5.4300589e-02
-3.8071055e-02
4.9591729e-05
5.8853106e-02
1.1544402e-01
1.4642527e-01
1.5926564e-01
1.5311143e-01
1.4092010e-01
1.4005478e-01
1.3535879e-01
1.1412804e-01
8.1056567e-02
5.1939734e-02
2.2832276e-02
-1.4240925e-02
-4.1979185e-02
-5.3808250e-02
-5.0722506e-02
-4.3350148e-02
-4.9793587e-02
-6.1339792e-02
-6.4140760e-02
-5.2764871e-02
-4.6819109e-02
-6.7626311e-02
-9.5356375e-02
-1.1683106e-01
-1.2972173e-01
-1.3151770e-01
-1.2582662e-01
-1.0602404e-01
-6.9049969e-02
-1.9232436e-02
1.8523894e-02
2.7127938e-02
2.6897060e-02
2.8507684e-02
3.9316207e-02
5.0808077e-02
4.3778759e-02
3.4784018e-02
4.1296227e-02
6.4149249e-02
7.9686683e-02
7.0016627e-02
5.4030859e-02
4.3352370e-02
4.5022408e-02
5.6806844e-02
6.7332560e-02
7.4007130e-02
7.5559269e-02
7.4299534e-02
6.0021861e-02
3.2852992e-02
1.0298293e-02
-1.9640491e-03
-6.8675833e-04
5.0348142e-03
5.0620369e-03
5.8249313e-03
9.8045085e-03
1.5957661e-02
8.1195033e-03
-2.2056254e-02
-6.0617164e-02
-1.0401024e-01
-1.4166141e-01
-1.6749813e-01
-1.8602248e-01
-1.9520610e-01
-1.9625344e-01
-1.9161902e-01
-1.8835683e-01
-1.8313268e-01
-1.6576577e-01
-1.4132529e-01
-1.1167075e-01
-7.7369874e-02
-3.9817734e-02
6.4974098e-03
6.0298513e-02
1.1350032e-01
1.5578841e-01
1.9416277e-01
2.2893622e-01
2.4922154e-01
2.7417447e-01
3.0249953e-01
3.0970761e-01
2.9310797e-01
2.5951580e-01
2.1092623e-01
1.4952468e-01
9.6496330e-02
5.6717019e-02
1.6544488e-02
-1.5775377e-02
-3.5663628e-02
-4.3711264e-02
-4.1555568e-02
-4.1920196e-02
-5.2679475e-02
-7.2930640e-02
-9.0812406e-02
-1.0863242e-01
-1.3819847e-01
-1.6664080e-01
-1.8265021e-01
-1.8186474e-01
-1.6103267e-01
-1.2841752e-01
-9.3975111e-02
-6.2018820e-02
-2.8423910e-02
-7.0976527e-03
-1.2152418e-02
-2.2934564e-02
-3.0882401e-02
-4.3883221e-02
-5.9813287e-02
-7.4951059e-02
-9.2336986e-02
-1.1371062e-01
-1.2452412e-01
-1.1815909e-01
-1.0344193e-01
-8.9963981e-02
-8.2438324e-02
-6.7704729e-02
-3.7467748e-02
-2.2379586e-03
2.2414503e-02
3.2305215e-02
4.4985224e-02
5.8631911e-02
6.5530374e-02
8.1786280e-02
1.0714162e-01
1.3288685e-01
1.5435425e-01
1.6031446e-01
1.3126641e-01
6.9783354e-02
1.9940702e-02
-7.6893317e-03
-3.0828121e-02
-4.9292846e-02
-6.4785405e-02
-6.7991398e-02
-5.4822950e-02
-4.1441780e-02
-4.5874468e-02
-6.6780659e-02
-7.5414437e-02
-6.6129485e-02
-4.5577576e-02
-1.8871185e-03
6.2149503e-02
1.3843544e-01
2.1790113e-01
2.8035063e-01
3.0030855e-01
2.7994557e-01
2.4876978e-01
1.9620202e-01
1.2150877e-01
5.3792067e-02
-2.9353828e-03
-4.1204243e-02
-5.8336452e-02
-7.0583365e-02
-9.6143686e-02
-1.3262027e-01
-1.5127635e-01
-1.4257061e-01
-1.1891866e-01
-1.0176325e-01
-1.0241885e-01
-9.9672147e-02
-8.5551326e-02
-7.4384011e-02
-8.3984482e-02
-1.1546676e-01
-1.4181457e-01
-1.5147291e-01
-1.3917315e-01
-1.0873572e-01
-7.8630767e-02
-4.1080689e-02
1.2573967e-02
6.4262619e-02
8.6221170e-02
8.5784243e-02
9.6676185e-02
1.2648956e-01
1.7352465e-01
2.1161926e-01
2.1734387e-01
2.2085398e-01
2.3490724e-01
2.4174915e-01
2.2371110e-01
1.8361595e-01
1.3369243e-01
6.8381603e-02
4.2230797e-03
-4.6371104e-02
-9.0324901e-02
-1.2078097e-01
-1.3606961e-01
-1.4412415e-01
-1.5652600e-01
-1.7334881e-01
-1.7941242e-01
-1.6989248e-01
-1.4379541e-01
-1.1785264e-01
-1.1200501e-01
-1.1068569e-01
-9.8239315e-02
-8.2713064e-02
-8.2696264e-02
-9.0978992e-02
-8.1948863e-02
-5.2692999e-02
-1.0803766e-02
1.2313062e-02
-4.0197945e-03
-2.0110071e-02
-1.1391072e-02
1.2903236e-02
3.3864951e-02
4.1932698e-02
4.8882953e-02
5.8661220e-02
8.3402274e-02
1.1036400e-01
1.1609178e-01
1.2065226e-01
1.3326047e-01
1.4446973e-01
1.4697426e-01
1.4542138e-01
1.4341370e-01
1.3492637e-01
1.3804746e-01
1.3222370e-01
8.4912160e-02
2.5965609e-02
-2.3687514e-02
-6.4735128e-02
-1.0073626e-01
-1.3248287e-01
-1.5130057e-01
-1.5811844e-01
-1.5067903e-01
-1.4705929e-01
-1.6559981e-01
-1.8047229e-01
-1.7908275e-01
-1.7478583e-01
-1.6954411e-01
-1.4614279e-01
-1.0491391e-01
-6.0553449e-02
-9.4128937e-03
2.2846026e-02
2.2766455e-02
3.1140440e-02
6.1532079e-02
9.2643656e-02
9.9803590e-02
8.3295363e-02
6.4688170e-02
5.3371862e-02
5.9404497e-02
6.8087054e-02
6.8908326e-02
8.9743812e-02
1.3446284e-01
1.8280374e-01
2.1454081e-01
2.3438571e-01
2.5645361e-01
2.7706852e-01
2.9320617e-01
2.7310606e-01
2.0635741e-01
1.2835484e-01
5.6287477e-02
-3.4333095e-03
-4.5553370e-02
-6.1041976e-02
-5.7470522e-02
-5.5951015e-02
-6.7042496e-02
-1.0822681e-01
-1.7142434e-01
-2.3287267e-01
-2.8756846e-01
-3.3405112e-01
-3.7047880e-01
-3.8656428e-01
-3.9108878e-01
-4.0270204e-01
-4.1895243e-01
-4.4366980e-01
-4.6478168e-01
-4.6373908e-01
-4.4109778e-01
-3.8875695e-01
-3.0223568e-01
-1.8466529e-01
-5.8064924e-02
5.9550916e-02
1.7940597e-01
2.8756532e-01
3.7238465e-01
4.4422824e-01
4.9781672e-01
5.2768262e-01
5.3899033e-01
5.3849876e-01
5.2488178e-01
4.9295037e-01
4.4006061e-01
3.7465742e-01
3.0880120e-01
2.3122565e-01
1.2982024e-01
1.0736892e-02
-9.7807215e-02
-1.6233444e-01
-1.9594240e-01
-2.2003595e-01
-2.4151882e-01
-2.7336275e-01
-3.1559980e-01
-3.6592170e-01
-4.0286147e-01
-3.9577303e-01
-3.3619275e-01
-2.3633524e-01
-1.3265231e-01
-4.2140633e-02
3.7971918e-02
9.6377155e-02
1.2862590e-01
1.3695952e-01
1.2246117e-01
9.3252253e-02
7.3279988e-02
8.2691092e-02
1.1286387e-01
1.5585729e-01
2.0727095e-01
2.6019327e-01
3.1078315e-01
3.4227056e-01
3.3971605e-01
3.0651144e-01
2.6348900e-01
2.2994770e-01
2.0498495e-01
1.8903579e-01
1.7942427e-01
1.7229528e-01
1.6853569e-01
1.5233569e-01
1.1492966e-01
6.0408463e-02
6.2205834e-04
-5.4250059e-02
-1.1831386e-01
-1.9660580e-01
-2.7260085e-01
-3.2501374e-01
-3.4614880e-01
-3.4941871e-01
-3.3015799e-01
-2.7301928e-01
-1.7935825e-01
-7.4010436e-02
1.8695657e-03
3.8877703e-02
3.6587980e-02
-2.5247359e-04
-4.5021633e-02
-9.1284402e-02
-1.2204094e-01
-1.1319808e-01
-6.3061919e-02
5.5702268e-04
4.1125918e-02
6.9489600e-02
8.2789803e-02
6.6552159e-02
3.7397915e-02
-5.4445058e-03
-4.9791809e-02
-6.7468434e-02
-4.7457591e-02
4.6860682e-03
7.1995044e-02
1.4081960e-01
1.7682752e-01
1.6764959e-01
1.3634083e-01
7.6514942e-02
-1.7966243e-03
-6.5382473e-02
-1.0277030e-01
-1.1846948e-01
-1.2241962e-01
-1.1546707e-01
-1.1065004e-01
-1.1845464e-01
-1.2653895e-01
-1.3249239e-01
-1.3106404e-01
-1.0920262e-01
-7.1774722e-02
-5.5524453e-02
-8.4899173e-02
-1.2455328e-01
-1.3989884e-01
-1.2441547e-01
-9.8191009e-02
-9.5524020e-02
-1.0241947e-01
-8.5718637e-02
-3.3771376e-02
3.1689349e-02
7.8935975e-02
1.2089909e-01
1.4979587e-01
1.5121927e-01
1.4693804e-01
1.3045451e-01
1.0241237e-01
9.0538414e-02
1.1298882e-01
1.5302042e-01
1.8557074e-01
2.1944331e-01
2.3946616e-01
2.3456758e-01
2.2309335e-01
1.9014241e-01
1.2985865e-01
7.2102750e-02
4.4090140e-02
2.9597177e-02
4.2201233e-04
-3.2269854e-02
-7.1733946e-02
-1.1926887e-01
-1.5695197e-01
-1.8585690e-01
-2.0148396e-01
-1.9314738e-01
-1.5619934e-01
-1.1351477e-01
-9.0979797e-02
-7.4477914e-02
-5.9705804e-02
-4.8082905e-02
-4.0644841e-02
-5.2273335e-02
-7.3413496e-02
-8.3127634e-02
-7.1123026e-02
-5.2108857e-02
-4.2539049e-02
-2.6356744e-02
7.9414813e-03
6.2014742e-02
1.1719280e-01
1.4249902e-01
1.4312478e-01
1.3945017e-01
1.4628671e-01
1.4609991e-01
1.1853301e-01
7.5390758e-02
2.1467831e-02
-2.0862983e-02
-4.2244863e-02
-5.9509954e-02
-6.5835444e-02
-5.3281770e-02
-2.0429916e-02
1.0676680e-02
1.9359369e-02
1.5953847e-02
3.4973885e-03
-4.1338615e-03
-1.0388146e-02
-3.9013282e-02
-7.3826583e-02
-9.6947909e-02
-1.0715582e-01
-1.1218433e-01
-1.1917863e-01
-1.2589782e-01
-1.3787181e-01
-1.4769283e-01
-1.5105199e-01
-1.5501938e-01
-1.4835115e-01
-1.2036287e-01
-7.0379665e-02
-1.7829705e-02
1.8819854e-02
3.9667040e-02
4.6065360e-02
5.9855644e-02
8.3757278e-02
1.0291282e-01
1.2961338e-01
1.6878709e-01
2.1203680e-01
2.3730757e-01
2.3428643e-01
2.0960907e-01
1.5805812e-01
1.0061509e-01
4.9029613e-02
-4.4829756e-03
-4.6482362e-02
-6.8137119e-02
-6.6518049e-02
-6.5168176e-02
-8.6770222e-02
-1.1083528e-01
-1.2165022e-01
-1.1216942e-01
-8.7232082e-02
-5.7313136e-02
-2.1158240e-02
1.3297709e-02
3.9038366e-02
3.9721288e-02
1.2338078e-02
-1.7606800e-02
-3.8537256e-02
-4.1871883e-02
-2.8251480e-02
-2.0550096e-03
4.0747950e-02
8.7722306e-02
1.2129710e-01
1.2518517e-01
1.0522047e-01
7.6080232e-02
3.9180420e-02
1.2864103e-02
5.2023104e-03
1.3575267e-02
4.0534566e-02
7.3183390e-02
9.4055155e-02
8.7039188e-02
6.1754864e-02
3.2615398e-02
-5.6755500e-03
-3.6440481e-02
-5.4628017e-02
-7.2163164e-02
-8.4269892e-02
-8.7978846e-02
-8.3733448e-02
-7.7740073e-02
-6.9432645e-02
-6.1457599e-02
-6.3393702e-02
-6.2043464e-02
-5.3517014e-02
-4.2578171e-02
-2.7830445e-02
-1.5903377e-02
-1.2819556e-02
-2.6430784e-02
-4.9709192e-02
-6.8598864e-02
-7.9063311e-02
-7.2804256e-02
-5.3592089e-02
-2.9762634e-02
-6.6859125e-04
3.1260452e-02
5.1205327e-02
4.2537117e-02
2.3198383e-02
7.7103719e-03
-8.8216021e-03
-1.1465241e-02
5.3491935e-03
3.3945280e-02
6.4354205e-02
8.3614529e-02
8.3867919e-02
6.3471046e-02
4.1874060e-02
2.4503102e-02
4.9048324e-03
-4.8889111e-03
-6.0776192e-03
-7.2271329e-03
-1.2774998e-02
-2.2798582e-02
-3.9903663e-02
-6.7045888e-02
-8.6040168e-02
-9.4372933e-02
-1.0016765e-01
-9.0310638e-02
-6.0038115e-02
-1.0798046e-02
5.1191384e-02
1.0231465e-01
1.1344395e-01
8.3640318e-02
4.6329745e-02
9.5770830e-03
-2.8026884e-02
-5.0378312e-02
-5.5325695e-02
-4.2038559e-02
-1.7449980e-02
1.7594863e-03
-5.5657741e-03
-4.3546623e-02
-7.2945847e-02
-8.5274441e-02
-9.3905486e-02
-8.6114347e-02
-6.0619819e-02
-1.7802775e-02
3.7397295e-02
8.5498892e-02
1.0526099e-01
9.8159615e-02
1.0092877e-01
1.1520678e-01
1.2666533e-01
1.4295783e-01
1.5552547e-01
1.6443396e-01
1.7135336e-01
1.6805844e-01
1.3938200e-01
7.7673698e-02
1.0633161e-02
-4.8154213e-02
-9.4022190e-02
-1.1677708e-01
-1.2548765e-01
-1.2033742e-01
-1.0207647e-01
-8.9184908e-02
-1.0543259e-01
-1.5100779e-01
-2.0039788e-01
-2.5498913e-01
-3.1318632e-01
-3.4881217e-01
-3.5466352e-01
-3.3097099e-01
-2.7553726e-01
-1.9297662e-01
-8.7704665e-02
3.9498753e-02
1.8030944e-01
3.0906850e-01
4.0391853e-01
4.5341949e-01
4.6558267e-01
4.7480538e-01
4.8143071e-01
4.4889594e-01
3.5529567e-01
2.2741109e-01
1.1783097e-01
4.5445247e-02
2.1465574e-02
3.7636286e-02
5.9992979e-02
8.1325454e-02
8.8863805e-02
6.6672480e-02
2.2120668e-02
-2.4070349e-02
-4.4037462e-02
-3.8025369e-02
-1.9924499e-02
-1.3915355e-02
-4.1696534e-02
-7.5331954e-02
-9.1042743e-02
-9.5839846e-02
-1.0590463e-01
-1.2929011e-01
-1.5274453e-01
-1.7086863e-01
-1.8582915e-01
-1.9695252e-01
-2.0060363e-01
-1.8848114e-01
-1.6427013e-01
-1.3898018e-01
-1.1818693e-01
-1.0129080e-01
-8.8424969e-02
-8.4583712e-02
-8.8398289e-02
-9.5169967e-02
-9.8228899e-02
-8.8147119e-02
-6.5407882e-02
-3.7742581e-02
-1.8526798e-02
-1.4288122e-02
-1.4517496e-02
-1.1591523e-02
-1.7752279e-03
6.6881908e-03
7.2396630e-03
1.4774476e-02
3.3500580e-02
5.8733990e-02
7.6808295e-02
7.9208564e-02
7.4988977e-02
6.3552010e-02
5.5823650e-02
5.0589394e-02
3.4872408e-02
2.5847191e-02
3.4444251e-02
5.9360265e-02
8.4425352e-02
9.7321580e-02
1.1691306e-01
1.5265112e-01
1.9873358e-01
2.2190751e-01
2.0272624e-01
1.7332622e-01
1.4538685e-01
1.0977934e-01
6.2488256e-02
1.3438745e-02
-1.9592816e-02
-3.6648767e-02
-4.2869566e-02
-6.4550992e-02
-1.1257352e-01
-1.5004791e-01
-1.6011541e-01
-1.5211974e-01
-1.4251733e-01
-1.3935175e-01
-1.3500010e-01
-1.3156494e-01
-1.2939821e-01
-1.2566731e-01
-1.1510549e-01
-8.8704279e-02
-5.1735945e-02
-1.7650881e-02
-3.0638733e-03
-1.1858322e-02
-2.4426516e-02
-2.6878580e-02
-2.0400710e-02
-2.0184633e-02
-3.1721950e-02
-3.5662644e-02
-2.3534887e-02
2.0530113e-03
3.2881168e-02
6.2279218e-02
8.8331626e-02
1.0472544e-01
1.1314956e-01
9.8969412e-02
5.6197860e-02
1.4306942e-02
-1.4458430e-02
-3.5964676e-02
-5.4932158e-02
-6.5695836e-02
-6.9351027e-02
-7.4827720e-02
-6.7826849e-02
-6.2712864e-02
-7.8593065e-02
-8.8531042e-02
-7.8610787e-02
-5.0531961e-02
-7.9082412e-03
4.8677229e-02
1.0930479e-01
1.5266390e-01
1.8516192e-01
1.9773395e-01
1.8380741e-01
1.6902036e-01
1.6092658e-01
1.6302690e-01
1.7355740e-01
1.9243780e-01
2.1732759e-01
2.3212293e-01
2.3442625e-01
2.0200557e-01
1.3176306e-01
6.3685445e-02
1.2541599e-02
-3.4023324e-02
-8.6589598e-02
-1.3318786e-01
-1.7096813e-01
-2.1102247e-01
-2.4513438e-01
-2.7333397e-01
-2.9226509e-01
-2.9460120e-01
-2.8704812e-01
-2.7163513e-01
-2.5066082e-01
-2.1630274e-01
-1.7408186e-01
-1.3741080e-01
-1.0487063e-01
-1.0015954e-01
-1.2516301e-01
-1.4253407e-01
-1.3412585e-01
-9.9570204e-02
-4.2664289e-02
3.5413893e-02
1.1616847e-01
1.7996781e-01
2.3105698e-01
2.5819359e-01
2.5966918e-01
2.5742923e-01
2.6371871e-01
2.7791374e-01
2.8841325e-01
2.9290174e-01
2.8389064e-01
2.5747982e-01
2.2126846e-01
1.7090851e-01
1.1489128e-01
5.4625583e-02
-8.9894332e-03
-5.7827046e-02
-8.1643174e-02
-7.6059377e-02
-5.1177824e-02
-1.9432503e-02
9.9173555e-03
1.5479242e-02
-1.1455178e-02
-5.9973770e-02
-1.1115389e-01
-1.4734630e-01
-1.6237549e-01
-1.5366595e-01
-1.3885842e-01
-1.3548988e-01
-1.3647783e-01
-1.4172141e-01
-1.5824453e-01
-1.9026523e-01
-2.2421986e-01
-2.3246131e-01
-2.0410013e-01
-1.4433398e-01
-7.8246502e-02
-2.8604228e-02
-6.4952583e-03
-1.0921566e-02
-1.5882674e-02
-1.3260283e-02
-1.3538534e-03
2.9899067e-02
7.9538226e-02
1.4165814e-01
1.8938371e-01
2.1054826e-01
2.1668025e-01
2.1487722e-01
2.1147882e-01
1.8354008e-01
1.2909813e-01
8.2026807e-02
5.8945603e-02
6.4215621e-02
7.6160149e-02
7.5976409e-02
6.3741338e-02
4.1284192e-02
1.1954254e-02
-4.1150204e-02
-1.1188989e-01
-1.6599083e-01
-1.8981605e-01
-1.8473687e-01
-1.6790306e-01
-1.5053484e-01
-1.4584967e-01
-1.6433316e-01
-1.8677694e-01
-2.0783123e-01
-2.1489241e-01
-1.8132662e-01
-1.0111688e-01
4.9141448e-03
9.3006098e-02
1.5034434e-01
1.7633497e-01
1.7178725e-01
1.5769850e-01
1.3300047e-01
1.1034040e-01
1.1537215e-01
1.5010716e-01
1.9776124e-01
2.1956903e-01
2.1438665e-01
1.9628565e-01
1.6104255e-01
1.1781047e-01
5.4389259e-02
-2.5740778e-02
-8.7512911e-02
-1.1261134e-01
-1.0280471e-01
-7.3823756e-02
-2.9936068e-02
8.5427502e-03
2.1366208e-02
1.9278052e-02
-1.2676801e-02
-7.2463891e-02
-1.2244121e-01
-1.4456265e-01
-1.4475851e-01
-1.4040928e-01
-1.2825076e-01
-1.1629245e-01
-1.1819028e-01
-1.2096729e-01
-1.3503775e-01
-1.5955441e-01
-1.6239149e-01
-1.2688599e-01
-6.5595027e-02
-1.0968412e-02
3.1589382e-02
6.0598424e-02
7.1743657e-02
7.4558461e-02
6.0330785e-02
4.7597779e-02
7.1314634e-02
1.3756205e-01
2.1728668e-01
2.5765070e-01
2.5450781e-01
2.3260156e-01
2.0567790e-01
1.7915573e-01
1.3094327e-01
6.2716935e-02
8.6446599e-03
-1.1168240e-02
-1.7082633e-04
2.1592164e-02
4.3592473e-02
4.4292084e-02
1.5741255e-02
-2.0414622e-02
-7.0692622e-02
-1.3021021e-01
-1.7293601e-01
-1.8961709e-01
-1.8879063e-01
-1.8510431e-01
-1.7120395e-01
-1.5153135e-01
-1.3390971e-01
-1.1713082e-01
-1.2457739e-01
-1.4842584e-01
-1.5149006e-01
-1.1789189e-01
-6.6456347e-02
-2.6115396e-02
1.5247988e-02
5.2789946e-02
6.8188182e-02
7.0876239e-02
5.2078920e-02
2.1929761e-02
1.3219783e-02
4.0128809e-02
8.6486661e-02
1.2560201e-01
1.6521929e-01
1.9679451e-01
2.1127791e-01
2.2160513e-01
2.0390895e-01
1.4975331e-01
8.4905030e-02
3.4314340e-02
1.1422724e-03
-3.1592470e-02
-5.6446671e-02
-7.2087864e-02
-8.3359701e-02
-9.0147064e-02
-1.0643997e-01
-1.1620931e-01
-9.0766589e-02
-2.3849976e-02
5.9667944e-02
1.2956920e-01
1.8338507e-01
1.9563200e-01
1.6021879e-01
1.0376784e-01
2.0695102e-02
-7.4152861e-02
-1.4458381e-01
-1.7690560e-01
-1.8350970e-01
-1.8060383e-01
-1.5634134e-01
-1.2060259e-01
-9.3371281e-02
-7.5979774e-02
-8.6050428e-02
-1.1300999e-01
-1.2300966e-01
-1.0434651e-01
-6.7261570e-02
-2.6176437e-02
2.2297340e-02
6.2563121e-02
8.1899551e-02
8.5560064e-02
5.6957255e-02
1.1687748e-02
-3.1856655e-03
3.2398327e-02
8.5396078e-02
1.1736877e-01
1.4238774e-01
1.4954132e-01
1.2850245e-01
1.0432730e-01
7.1117549e-02
3.3106351e-02
1.4166096e-02
2.6973834e-02
4.7935624e-02
4.3747081e-02
3.7451587e-02
3.7169916e-02
3.0653840e-02
1.7683283e-02
-1.9879751e-02
-7.2138488e-02
-1.1112938e-01
-1.2234492e-01
-1.2092002e-01
-1.2882523e-01
-1.3011165e-01
-1.2639101e-01
-1.2357528e-01
-1.1925271e-01
-1.3035891e-01
-1.4859840e-01
-1.5263703e-01
-1.3186380e-01
-9.9705377e-02
-7.7089417e-02
-4.8116567e-02
-1.1450205e-02
2.5292848e-02
6.3944051e-02
8.5898677e-02
8.7547574e-02
8.3025426e-02
9.2220897e-02
1.1161671e-01
1.2654441e-01
1.4222984e-01
1.3471499e-01
1.0104055e-01
7.4199198e-02
5.6612016e-02
4.5696424e-02
5.1453821e-02
8.9651200e-02
1.4850640e-01
2.0239457e-01
2.5090996e-01
2.6933320e-01
2.4580440e-01
1.9602628e-01
1.1290711e-01
1.5521177e-02
-5.8731302e-02
-9.5653558e-02
-1.0924632e-01
-1.2419164e-01
-1.4181145e-01
-1.6162868e-01
-1.8641637e-01
-2.1232530e-01
-2.3373518e-01
-2.4526595e-01
-2.4557384e-01
-2.2747176e-01
-2.0195961e-01
-1.8546413e-01
-1.6526688e-01
-1.3709404e-01
-9.8809747e-02
-5.2853393e-02
-1.8154818e-02
8.6465580e-03
3.5870654e-02
7.0951275e-02
1.0870090e-01
1.3585058e-01
1.6097249e-01
1.8218606e-01
2.0646395e-01
2.2935920e-01
2.2222417e-01
1.9833241e-01
1.8656752e-01
2.0532608e-01
2.4271391e-01
2.6802531e-01
2.7042082e-01
2.3066766e-01
1.6061140e-01
8.5673782e-02
-3.4200046e-03
-9.6864971e-02
-1.7904455e-01
-2.4398163e-01
-2.9079928e-01
-3.2266470e-01
-3.3300635e-01
-3.2590913e-01
-3.0450573e-01
-2.7576591e-01
-2.5842831e-01
-2.4457639e-01
-2.1188015e-01
-1.5043888e-01
-7.5399639e-02
-7.1396919e-03
5.9838210e-02
1.3597399e-01
2.3218709e-01
3.2827392e-01
3.7941898e-01
3.7578859e-01
3.3554604e-01
2.9594029e-01
2.6550533e-01
2.2587093e-01
1.7994916e-01
1.2998363e-01
9.3178507e-02
6.1875230e-02
4.4536995e-04
-7.6300172e-02
-1.4114348e-01
-1.8390309e-01
-2.1228812e-01
-2.3930762e-01
-2.5714234e-01
-2.6266180e-01
-2.5168110e-01
-2.2482562e-01
-1.9655293e-01
-1.6904080e-01
-1.4060458e-01
-1.1191417e-01
-9.3440118e-02
-8.9449931e-02
-8.9962488e-02
-9.4133757e-02
-9.2353426e-02
-8.2327470e-02
-7.0230840e-02
-4.9940558e-02
-1.7829393e-02
3.0574984e-02
7.2104769e-02
8.5781156e-02
8.8878173e-02
9.2334261e-02
1.0918873e-01
1.3241324e-01
1.3093936e-01
9.5437738e-02
3.9302710e-02
-9.2800480e-03
-4.1119214e-02
-5.8480703e-02
-5.8183059e-02
-5.5462208e-02
-6.0939252e-02
-6.8602701e-02
-6.5115197e-02
-4.4715123e-02
-1.2894105e-02
3.3223434e-02
8.3308987e-02
1.3281429e-01
1.8892880e-01
2.4004711e-01
2.8158186e-01
3.1599849e-01
3.5448492e-01
3.9616719e-01
4.1822033e-01
4.1955258e-01
3.9606601e-01
3.3624994e-01
2.4807718e-01
1.5070300e-01
6.9997381e-02
1.0239016e-02
-4.4746438e-02
-9.4180940e-02
-1.3222446e-01
-1.6195486e-01
-1.9536868e-01
-2.3921497e-01
-2.8077148e-01
-3.0975746e-01
-3.2568796e-01
-3.3319045e-01
-3.3547219e-01
-3.3038636e-01
-3.1616344e-01
-2.9735526e-01
-2.8375717e-01
-2.7113434e-01
-2.4841193e-01
-2.1522157e-01
-1.7574731e-01
-1.3167683e-01
-8.0295004e-02
-2.2149865e-02
3.7275504e-02
9.6077060e-02
1.5014039e-01
1.9289915e-01
2.2649860e-01
2.5432851e-01
2.6953139e-01
2.6192468e-01
2.3744600e-01
2.0462102e-01
1.6337600e-01
1.2271243e-01
8.2091415e-02
3.7948367e-02
-4.3321666e-03
-4.4391314e-02
-7.6879539e-02
-9.9622158e-02
-1.0997228e-01
-1.0601532e-01
-9.6294475e-02
-8.5778954e-02
-8.2083569e-02
-8.5704557e-02
-8.8982307e-02
-9.0516069e-02
-8.5789460e-02
-8.0632699e-02
-7.9578628e-02
-7.1369780e-02
-5.1397344e-02
-2.0124754e-02
1.0716039e-02
3.6575749e-02
6.0718846e-02
7.9035384e-02
1.0459405e-01
1.3764955e-01
1.7066280e-01
2.0814349e-01
2.4328609e-01
2.6196586e-01
2.4740254e-01
2.0882990e-01
1.5674976e-01
8.4792452e-02
1.6597823e-02
-3.3317735e-02
-7.3794337e-02
-1.0420196e-01
-1.2001913e-01
-1.1974187e-01
-1.1760517e-01
-1.2384879e-01
-1.3103041e-01
-1.3529070e-01
-1.3240592e-01
-1.2431254e-01
-1.1551407e-01
-1.0081244e-01
-7.8921156e-02
-4.7264352e-02
-1.7727670e-02
-1.5917711e-03
8.6789940e-03
1.1835804e-02
1.4073237e-02
1.8226008e-02
2.2337289e-02
2.8735330e-02
3.2817965e-02
3.6576677e-02
4.2679074e-02
5.7924170e-02
7.0650259e-02
6.0974517e-02
4.8695959e-02
4.7842648e-02
5.3760032e-02
6.9799769e-02
9.3060305e-02
1.1491340e-01
1.1866316e-01
1.0272357e-01
7.6799326e-02
3.9432425e-02
5.0938163e-03
-2.0046112e-02
-4.1798816e-02
-5.7367738e-02
-7.0617503e-02
-8.7441655e-02
-1.1080607e-01
-1.3072743e-01
-1.4240522e-01
-1.5471859e-01
-1.6550987e-01
-1.7284789e-01
-1.7204585e-01
-1.5951065e-01
-1.4388449e-01
-1.2742937e-01
-1.0783527e-01
-7.7967829e-02
-3.7097942e-02
4.3090399e-03
4.7318274e-02
9.0971655e-02
1.3443605e-01
1.8349856e-01
2.2899925e-01
2.4277619e-01
2.0897698e-01
1.5833863e-01
1.1774922e-01
8.6314965e-02
6.5493796e-02
4.7206013e-02
3.1832807e-02
2.5588245e-02
2.0944743e-02
1.4139711e-02
3.4439636e-03
-8.3686200e-03
-2.3608617e-02
-4.3896882e-02
-5.5826032e-02
-5.9458929e-02
-5.5697867e-02
-3.7281331e-02
-8.6460838e-03
6.1533228e-03
-1.7437198e-02
-6.2512619e-02
-1.0260792e-01
-1.3134727e-01
-1.4399422e-01
-1.4388605e-01
-1.3282600e-01
-1.0407280e-01
-5.5632793e-02
-1.0973636e-02
-1.0917821e-03
-1.0444116e-02
-2.1919639e-02
-3.9821061e-02
-5.6614904e-02
-6.9954911e-02
-7.9927404e-02
-9.1088628e-02
-1.0794655e-01
-1.2120290e-01
-1.1389277e-01
-7.0070676e-02
2.4793324e-03
8.1308765e-02
1.5251186e-01
2.1663553e-01
2.8182028e-01
3.3816289e-01
3.6497166e-01
3.4517536e-01
2.8252014e-01
2.0717985e-01
1.3406642e-01
6.8901769e-02
2.4034954e-02
5.9126587e-04
-3.5502176e-03
1.0929440e-02
3.8698027e-02
5.9446167e-02
5.0560126e-02
1.9189030e-02
-2.4568415e-02
-7.5876316e-02
-1.1572954e-01
-1.3854268e-01
-1.4821072e-01
-1.4609894e-01
-1.3836038e-01
-1.3500277e-01
-1.4241066e-01
-1.4399194e-01
-1.3275323e-01
-1.1866844e-01
-9.8225574e-02
-7.3187543e-02
-4.4393201e-02
-1.1441894e-02
1.7393230e-02
3.6247938e-02
4.4462854e-02
5.6076208e-02
7.1245302e-02
8.2397630e-02
9.6735136e-02
1.0962502e-01
1.2278397e-01
1.3092861e-01
1.1072089e-01
6.0210071e-02
-2.2094674e-04
-4.2324330e-02
-5.9068017e-02
-6.3861525e-02
-6.0100717e-02
-4.9216871e-02
-3.3918017e-02
-1.3504120e-02
7.7911465e-03
7.8540169e-03
-2.4295125e-02
-5.6222903e-02
-7.5559149e-02
-9.5528958e-02
-1.1067583e-01
-1.2214251e-01
-1.3341667e-01
-1.4218714e-01
-1.4924794e-01
-1.4879807e-01
-1.3030339e-01
-9.0968399e-02
-5.5615592e-02
-4.1284602e-02
-2.8138758e-02
-6.7442245e-03
2.3108054e-02
6.4595955e-02
1.1401307e-01
1.5282134e-01
1.6454617e-01
1.6760668e-01
1.7151193e-01
1.7509437e-01
1.9522750e-01
2.3344618e-01
2.7169577e-01
2.9266396e-01
2.9210761e-01
2.6191563e-01
1.9957351e-01
1.2933438e-01
6.0612112e-02
-5.3554373e-03
-5.9491624e-02
-1.0313319e-01
-1.3385361e-01
-1.4824371e-01
-1.5047036e-01
-1.4974727e-01
-1.5166903e-01
-1.5322455e-01
-1.5312446e-01
-1.4595436e-01
-1.3249257e-01
-1.2075794e-01
-1.0714674e-01
-9.1403223e-02
-8.3463237e-02
-9.2096139e-02
-1.1242216e-01
-1.2369757e-01
-1.2397071e-01
-1.2179411e-01
-1.1404145e-01
-1.0327469e-01
-8.1372338e-02
-3.9483827e-02
1.2419382e-02
5.6759379e-02
8.3589322e-02
1.0199108e-01
1.0269741e-01
7.6319791e-02
4.5256740e-02
1.8328113e-02
-2.4268946e-03
-8.5132339e-03
-1.2391028e-03
1.0286910e-02
1.7607519e-02
1.8375475e-02
4.1640299e-03
-1.6147574e-02
-2.9678199e-02
-4.7070482e-02
-6.3110007e-02
-6.6415470e-02
-6.1208597e-02
-5.8818746e-02
-5.9264882e-02
-4.4871578e-02
-1.9899728e-02
6.4033116e-03
4.2063519e-02
8.4280195e-02
1.3087349e-01
1.7259625e-01
1.9231974e-01
1.7807175e-01
1.3649833e-01
9.7126246e-02
5.2723210e-02
-5.0130840e-03
-4.5509031e-02
-6.1008140e-02
-6.2135523e-02
-5.5590517e-02
-5.1093099e-02
-6.8379471e-02
-1.0896921e-01
-1.4422328e-01
-1.7118040e-01
-1.8841448e-01
-1.7534680e-01
-1.2829313e-01
-5.5128264e-02
1.9080961e-02
6.2991149e-02
6.3290923e-02
3.5805365e-02
1.3916658e-02
4.5556202e-03
1.3352735e-02
5.8216949e-02
1.3482622e-01
2.2438914e-01
2.9174987e-01
3.0702815e-01
2.6878244e-01
2.0566247e-01
1.5393171e-01
1.0996642e-01
7.4084804e-02
6.7306307e-02
8.9943163e-02
1.3359166e-01
1.7555767e-01
1.8974619e-01
1.6467835e-01
1.1184939e-01
6.1722404e-02
6.6255584e-03
-5.7329287e-02
-9.9281214e-02
-1.1412380e-01
-1.1417247e-01
-1.1053008e-01
-1.1307288e-01
-1.3241777e-01
-1.6285583e-01
-1.7431099e-01
-1.5524172e-01
-1.1721537e-01
-7.3524375e-02
-3.5591631e-02
-1.6138715e-02
-2.8025022e-02
-6.4118533e-02
-1.1051850e-01
-1.5975833e-01
-1.9945500e-01
-2.2817199e-01
-2.4491140e-01
-2.4145293e-01
-2.2271443e-01
-1.9731617e-01
-1.6930115e-01
-1.3591657e-01
-1.0244087e-01
-7.2624571e-02
-3.5345552e-02
4.9020353e-03
4.8075502e-02
8.8481519e-02
1.1569080e-01
1.5260487e-01
2.1279602e-01
2.8557833e-01
3.4464366e-01
3.7362214e-01
3.7961401e-01
3.5558267e-01
3.1235926e-01
2.6884113e-01
2.2284864e-01
1.8316826e-01
1.4947647e-01
1.1081864e-01
5.8697989e-02
-5.8365564e-03
-7.0000870e-02
-1.3396978e-01
-1.9304710e-01
-2.3485253e-01
-2.5751411e-01
-2.6037937e-01
-2.4467731e-01
-2.1613201e-01
-1.7724025e-01
-1.2384092e-01
-5.6282603e-02
1.0477740e-02
6.6859066e-02
1.0876738e-01
1.3312764e-01
1.4990747e-01
1.5271561e-01
1.1840857e-01
4.4651320e-02
-4.1752705e-02
-1.1109326e-01
-1.5342309e-01
-1.6512080e-01
-1.5483646e-01
-1.4077453e-01
-1.1782024e-01
-8.0363398e-02
-4.2272907e-02
-2.9300159e-02
-4.6073653e-02
-6.8602475e-02
-9.4645956e-02
-1.1717940e-01
-1.2578646e-01
-1.3089795e-01
-1.3045563e-01
-1.2006301e-01
-1.0034751e-01
-7.7237669e-02
-5.0299499e-02
-1.4716961e-02
2.0798301e-02
7.1850695e-02
1.4275694e-01
2.1070674e-01
2.7881061e-01
3.3993130e-01
3.7059080e-01
3.5915380e-01
3.1663015e-01
2.6203192e-01
1.8888801e-01
1.1142306e-01
5.7955896e-02
2.4995736e-02
-4.3770343e-04
-2.6627265e-02
-5.3449679e-02
-8.8703778e-02
-1.3426649e-01
-1.6924761e-01
-1.8768906e-01
-1.9135706e-01
-1.7943874e-01
-1.5849582e-01
-1.3344350e-01
-1.1322615e-01
-1.0777209e-01
-1.2683332e-01
-1.6237944e-01
-1.8704318e-01
-1.9060040e-01
-1.6531299e-01
-1.1406676e-01
-5.5554134e-02
6.0990500e-03
6.4385179e-02
1.0877210e-01
1.2425373e-01
1.1191843e-01
9.2975365e-02
6.6193920e-02
4.2232755e-02
3.9094563e-02
5.0835167e-02
7.0808824e-02
8.6799993e-02
8.5857750e-02
5.8335853e-02
1.4842840e-02
-2.2939384e-02
-4.9766555e-02
-4.4618864e-02
-1.0882542e-02
2.3981824e-02
6.3289065e-02
9.7475064e-02
9.7756904e-02
5.2497764e-02
-1.8571987e-02
-8.9962690e-02
-1.4833122e-01
-1.6472298e-01
-1.3160803e-01
-7.9581845e-02
-3.9201218e-02
-3.2958286e-02
-5.5141956e-02
-6.7515953e-02
-3.3493821e-02
5.0491997e-02
1.5300376e-01
2.3427216e-01
2.7850612e-01
3.0699028e-01
3.3653455e-01
3.5151566e-01
3.4140735e-01
3.0938854e-01
2.7101231e-01
2.3475724e-01
1.8646308e-01
1.3639987e-01
9.7658499e-02
6.7100487e-02
4.1626698e-02
2.4718494e-05
-6.6671546e-02
-1.4403333e-01
-2.1681991e-01
-2.7422991e-01
-3.1316916e-01
-3.3366924e-01
-3.5080004e-01
-3.7185663e-01
-3.7563902e-01
-3.5084609e-01
-3.1057838e-01
-2.7824813e-01
-2.5650943e-01
-2.3532624e-01
-2.1314397e-01
-1.7484855e-01
-1.1629136e-01
-4.5789544e-02
3.3461210e-02
1.0278427e-01
1.4884023e-01
1.7196274e-01
1.8404752e-01
1.9834478e-01
2.1680315e-01
2.4478366e-01
2.6138348e-01
2.4702655e-01
2.2106086e-01
1.9252585e-01
1.5918154e-01
1.1576782e-01
6.2316696e-02
2.0323458e-02
5.8072909e-03
2.1959030e-02
4.4738885e-02
5.1854067e-02
5.7120924e-02
6.6808095e-02
7.4288826e-02
6.0874345e-02
2.2954444e-02
-2.1838808e-02
-7.0116203e-02
-1.0383787e-01
-1.3099522e-01
-1.7450820e-01
-2.0938932e-01
-2.1867997e-01
-2.1101840e-01
-2.0448384e-01
-2.0356389e-01
-1.9776592e-01
-1.8783918e-01
-1.6452447e-01
-1.3332070e-01
-1.0453254e-01
-6.0095946e-02
3.1476652e-03
6.8291033e-02
1.0846479e-01
1.2187473e-01
1.2784549e-01
1.2921329e-01
1.4270822e-01
1.5629660e-01
1.5409890e-01
1.7114859e-01
2.1072190e-01
2.3102360e-01
2.0605671e-01
1.6016608e-01
1.1952976e-01
8.2486284e-02
6.2468428e-02
5.0425766e-02
3.0415905e-02
2.2925074e-02
2.9375034e-02
2.9858053e-02
2.4178675e-03
-5.1163190e-02
-9.7281379e-02
-1.1944391e-01
-1.1664513e-01
-1.0572193e-01
-9.8315091e-02
-7.3393309e-02
-2.4973808e-02
3.2729721e-02
7.6380036e-02
9.7232243e-02
9.7639431e-02
7.2534320e-02
4.3348066e-02
1.7836990e-02
-1.1977338e-02
-4.0105922e-02
-6.6285256e-02
-8.6078198e-02
-1.0596988e-01
-1.3160056e-01
-1.5803606e-01
-1.8591539e-01
-1.9949514e-01
-1.9854227e-01
-1.9690216e-01
-1.8561799e-01
-1.5964992e-01
-1.2242838e-01
-8.0653013e-02
-3.5650388e-02
6.4626701e-03
3.9140952e-02
7.6441684e-02
1.0097591e-01
9.5408571e-02
8.9293007e-02
9.8616730e-02
1.1713853e-01
1.3198731e-01
1.4240161e-01
1.4828028e-01
1.4022815e-01
1.3543595e-01
1.2108050e-01
7.6789914e-02
3.6847959e-02
1.8254428e-02
1.5207945e-03
-3.8052854e-02
-1.0049986e-01
-1.5757211e-01
-1.9009837e-01
-1.9178697e-01
-1.8398193e-01
-1.8359847e-01
-1.6842142e-01
-1.2775380e-01
-6.9571486e-02
-1.2287298e-02
3.9405356e-02
8.9835101e-02
1.2612568e-01
1.4962085e-01
1.4373213e-01
1.0250897e-01
6.8333915e-02
6.0486452e-02
7.3697939e-02
9.3912171e-02
1.1362925e-01
1.2830978e-01
1.3026452e-01
1.3983826e-01
1.4436285e-01
1.2488792e-01
1.1015454e-01
9.9931558e-02
6.7983911e-02
1.4294158e-02
-3.5985055e-02
-7.7503162e-02
-1.1791796e-01
-1.4271137e-01
-1.5401175e-01
-1.5618593e-01
-1.3325553e-01
-8.4930384e-02
-2.7369358e-02
8.8134510e-03
1.6874253e-02
8.6140769e-03
-2.1812670e-02
-5.7595409e-02
-8.9219551e-02
-1.1490469e-01
-1.1449215e-01
-8.6570039e-02
-5.0224585e-02
-3.1789907e-02
-2.8840325e-02
-1.9709663e-02
-2.9997568e-03
1.4109590e-02
2.8663620e-03
-4.3947597e-02
-8.5654112e-02
-1.0374930e-01
-9.5876456e-02
-6.2039201e-02
-6.6446926e-03
5.7886574e-02
1.1121848e-01
1.5123391e-01
1.6097513e-01
1.3417770e-01
1.0248094e-01
7.8850733e-02
5.9223492e-02
5.0184183e-02
6.8428086e-02
9.9320564e-02
1.1543609e-01
1.1707040e-01
8.7093499e-02
2.9653751e-02
-1.5311232e-02
-3.4350727e-02
-3.1951490e-02
-1.7213523e-02
6.7166150e-03
3.0476648e-02
4.5048691e-02
6.5363873e-02
7.5301867e-02
6.0139889e-02
4.6742950e-02
4.0684816e-02
2.9194192e-02
3.1567914e-03
-2.7416112e-02
-4.6112071e-02
-5.1266106e-02
-4.6133228e-02
-6.5078294e-02
-1.2487793e-01
-1.8664517e-01
-2.2394641e-01
-2.3343283e-01
-2.1942299e-01
-1.8843431e-01
-1.5846387e-01
-1.4779260e-01
-1.4378413e-01
-1.4629588e-01
-1.5503477e-01
-1.4821848e-01
-1.2022440e-01
-7.1894169e-02
-6.5866987e-03
7.8517490e-02
1.7368856e-01
2.5465784e-01
3.1777744e-01
3.4073870e-01
3.1238439e-01
2.6345583e-01
2.1313884e-01
1.6620867e-01
1.3303197e-01
1.3129023e-01
1.4171373e-01
1.3420313e-01
1.1643526e-01
8.2061094e-02
3.1703130e-02
-1.8441820e-02
-6.6380616e-02
-9.9216610e-02
-1.0756347e-01
-8.8754746e-02
-6.0786510e-02
-4.8055570e-02
-4.1190451e-02
-4.6817627e-02
-6.9367590e-02
-9.1149060e-02
-1.1035150e-01
-1.2417870e-01
-1.2483815e-01
-1.0285570e-01
-7.0189523e-02
-4.5105215e-02
-2.2036462e-02
-1.9498894e-02
-4.4134443e-02
-6.4721881e-02
-6.7645910e-02
-5.3201261e-02
-2.2798812e-02
2.3774658e-02
6.6941641e-02
8.0549189e-02
7.0311593e-02
4.2723754e-02
1.2267492e-02
-1.0118804e-03
1.7042414e-03
1.9965329e-02
4.9631309e-02
8.5671302e-02
1.1325440e-01
1.1524621e-01
9.9111392e-02
6.0730711e-02
-2.9658236e-03
-7.6868580e-02
-1.4332123e-01
-1.8370768e-01
-1.9317567e-01
-1.7196778e-01
-1.2970511e-01
-7.9093093e-02
-2.9643677e-02
-9.3010306e-03
-1.9897967e-02
-3.3234544e-02
-3.6530850e-02
-2.2525708e-02
1.2393897e-02
6.5959737e-02
1.1153047e-01
1.2450970e-01
1.1125126e-01
6.9683284e-02
1.2520645e-02
-3.7326669e-02
-7.3029433e-02
-8.7758395e-02
-7.9662897e-02
-4.4887591e-02
4.3779060e-04
3.2103386e-02
4.9670903e-02
3.7203095e-02
-7.8845516e-03
-5.7615547e-02
-9.3695143e-02
-1.0382069e-01
-8.4938851e-02
-3.8346489e-02
1.6137582e-02
5.2128657e-02
6.9216908e-02
5.9762828e-02
3.0576569e-02
1.1578145e-02
1.3022719e-02
2.7930509e-02
4.6389104e-02
8.3168663e-02
1.3372235e-01
1.6695813e-01
1.7517642e-01
1.5693571e-01
1.2732855e-01
9.2626356e-02
5.4695416e-02
3.5287574e-02
4.3019789e-02
7.8681475e-02
1.1196122e-01
1.1647954e-01
1.0872609e-01
9.5795895e-02
8.4159159e-02
6.3793378e-02
1.9753055e-02
-2.5324873e-02
-5.3219102e-02
-6.0472010e-02
-6.9231646e-02
-1.0088691e-01
-1.4576439e-01
-2.0536979e-01
-2.6650805e-01
-3.0397171e-01
-3.1483171e-01
-2.9787298e-01
-2.5256509e-01
-1.8282166e-01
-1.1359937e-01
-6.6554964e-02
-3.9261742e-02
-3.1731099e-02
-2.7426157e-02
-1.0169129e-02
1.7708969e-02
5.0459134e-02
8.4120577e-02
1.2004227e-01
1.4771018e-01
1.6789524e-01
1.8691631e-01
1.8846277e-01
1.7309487e-01
1.4431983e-01
1.0152948e-01
6.8663491e-02
6.4234584e-02
9.2317484e-02
1.3036105e-01
1.5149797e-01
1.4937106e-01
1.1444872e-01
5.7977349e-02
-4.8506701e-03
-6.4253124e-02
-1.0043967e-01
-1.0488667e-01
-8.0380333e-02
-6.0312417e-02
-7.2894410e-02
-1.1100354e-01
-1.7544545e-01
-2.4711654e-01
-2.9384356e-01
-3.0609798e-01
-2.7993737e-01
-2.1373359e-01
-1.0751584e-01
9.9517387e-03
9.9524812e-02
1.4672035e-01
1.4751706e-01
1.2195754e-01
9.3150054e-02
7.5256346e-02
8.0123059e-02
1.0411764e-01
1.4138727e-01
1.6996542e-01
1.7354998e-01
1.5728645e-01
1.2287356e-01
7.8008809e-02
1.9211725e-02
-4.2535042e-02
-7.9015124e-02
-8.1154954e-02
-4.2930844e-02
8.8827572e-03
4.0910813e-02
4.5641641e-02
1.7348377e-02
-2.9483888e-02
-8.3174538e-02
-1.3046158e-01
-1.4405673e-01
-1.1333153e-01
-4.0125422e-02
4.2025553e-02
9.9650424e-02
1.2902038e-01
1.2082183e-01
7.6135929e-02
4.4957853e-03
-7.1490377e-02
-1.2061346e-01
-1.3068591e-01
-9.9408478e-02
-5.5342980e-02
-2.6158789e-02
-1.2345525e-02
-1.6475107e-02
-2.7621380e-02
-4.6111286e-02
-7.0222299e-02
-7.2583297e-02
-4.1550320e-02
2.0662635e-02
8.5292250e-02
1.2489703e-01
1.4101544e-01
1.4254880e-01
1.4365385e-01
1.2675738e-01
8.3891815e-02
4.7716080e-02
4.1923056e-02
7.5876727e-02
1.2152893e-01
1.4947170e-01
1.5552002e-01
1.3332986e-01
9.4054658e-02
3.8841416e-02
-2.6034472e-02
-7.4115203e-02
-9.6046427e-02
-9.0086705e-02
-7.0487254e-02
-5.3059707e-02
-4.5232810e-02
-5.3994549e-02
-6.7721706e-02
-8.2066820e-02
-9.5357797e-02
-9.5093198e-02
-8.0145468e-02
-5.2408563e-02
-2.0927393e-02
5.3494079e-03
1.3509185e-02
-1.2456537e-02
-5.5466566e-02
-9.4937455e-02
-1.2316009e-01
-1.2934896e-01
-1.1176010e-01
-7.8891876e-02
-4.4534527e-02
-1.4293260e-02
1.1211310e-02
2.5684145e-02
2.1657030e-02
-1.3285467e-03
-2.4001304e-02
-2.7500419e-02
-1.3421856e-02
6.5937551e-03
2.0171756e-02
2.2963032e-02
1.4737561e-02
-5.0147778e-03
-3.3213958e-02
-6.5006932e-02
-8.9983493e-02
-9.8116965e-02
-9.0605963e-02
-7.6626876e-02
-6.7865560e-02
-6.5666128e-02
-6.8086784e-02
-7.5277356e-02
-8.7188867e-02
-1.0761382e-01
-1.2035308e-01
-1.0688898e-01
-6.7248901e-02
-1.2788415e-02
2.7105767e-02
4.6571962e-02
5.0210344e-02
3.3122654e-02
1.2349869e-02
-1.4743490e-02
-5.0613128e-02
-6.9533342e-02
-5.3380939e-02
2.4886957e-03
7.4504577e-02
1.4725728e-01
2.1880087e-01
2.8489677e-01
3.5335859e-01
3.9409162e-01
3.8221040e-01
3.4247153e-01
3.0899227e-01
2.9409013e-01
2.7520430e-01
2.5955785e-01
2.6077300e-01
2.5804742e-01
2.4239537e-01
1.9466633e-01
1.1056621e-01
1.9493852e-02
-5.5908760e-02
-1.0252726e-01
-1.3512611e-01
-1.6723180e-01
-2.0570769e-01
-2.6088911e-01
-3.1287117e-01
-3.4939071e-01
-3.6738609e-01
-3.5432588e-01
-3.0767279e-01
-2.3505276e-01
-1.6184762e-01
-1.0906784e-01
-9.0999544e-02
-1.1102254e-01
-1.4108253e-01
-1.6654685e-01
-1.8092156e-01
-1.6585628e-01
-1.1263562e-01
-3.1316186e-02
4.7462283e-02
1.1073096e-01
1.4722823e-01
1.4488515e-01
1.2339529e-01
8.5460112e-02
3.8191239e-02
9.9825874e-03
7.7132628e-03
2.5711883e-02
4.6256503e-02
5.8318349e-02
5.7807563e-02
4.1845739e-02
2.1418554e-02
-8.0428309e-03
-3.7491734e-02
-4.0881436e-02
-1.1031361e-02
4.4104710e-02
9.7213152e-02
1.3582924e-01
1.5096472e-01
1.3821187e-01
1.1454997e-01
6.7711549e-02
1.8974356e-03
-4.2812756e-02
-4.4020302e-02
-1.1146458e-02
9.7915983e-03
-1.3532414e-03
-3.9176719e-02
-9.9386629e-02
-1.6137666e-01
-2.2918663e-01
-2.9316848e-01
-3.2169521e-01
-3.0601852e-01
-2.5056867e-01
-1.7849875e-01
-1.0347956e-01
-3.5103538e-02
1.6134780e-02
5.8061701e-02
8.0411722e-02
8.3938891e-02
9.4599639e-02
1.3229701e-01
2.0105195e-01
2.6583254e-01
3.0651563e-01
3.2824242e-01
3.3656077e-01
3.4749569e-01
3.4055398e-01
2.9946045e-01
2.5061408e-01
2.2766476e-01
2.4389757e-01
2.7468147e-01
2.9413302e-01
2.7604062e-01
2.1862622e-01
1.4325329e-01
3.6184956e-02
-9.2165688e-02
-1.9663638e-01
-2.5584843e-01
-2.7073270e-01
-2.5752810e-01
-2.2782000e-01
-2.0070870e-01
-1.9190807e-01
-1.9613872e-01
-2.2488323e-01
-2.6885297e-01
-2.9813496e-01
-3.0377572e-01
-2.8464763e-01
-2.4825972e-01
-2.0441140e-01
-1.7238859e-01
-1.6229574e-01
-1.5630310e-01
-1.4964645e-01
-1.3726219e-01
-1.0373752e-01
-4.5806290e-02
2.5693587e-02
8.9008044e-02
1.3553893e-01
1.5329995e-01
1.4368437e-01
1.2527690e-01
8.3314058e-02
3.1721597e-02
1.9220836e-02
6.1518835e-02
1.2580015e-01
1.6987876e-01
2.0363292e-01
2.2557929e-01
2.2099334e-01
2.0310300e-01
1.5516767e-01
7.8042771e-02
1.3252584e-02
-1.2488691e-02
2.8833673e-03
4.1766110e-02
8.9529850e-02
1.1838600e-01
1.0816608e-01
7.2970761e-02
1.1346960e-02
-6.8851001e-02
-1.3692937e-01
-1.7871311e-01
-1.9383774e-01
-1.9126690e-01
-1.7846101e-01
-1.6615593e-01
-1.6235997e-01
-1.6215114e-01
-1.7145043e-01
-1.8408550e-01
-1.7614553e-01
-1.3757441e-01
-7.7728943e-02
-1.6848285e-02
3.8272734e-02
7.4442276e-02
8.8360584e-02
9.0964508e-02
6.1614346e-02
1.1538806e-02
-1.1876339e-02
1.0711556e-02
5.5919140e-02
8.5911678e-02
1.0910287e-01
1.2864408e-01
1.3183840e-01
1.3601132e-01
1.3768140e-01
1.3784342e-01
1.5996860e-01
2.1002174e-01
2.6329388e-01
2.7098501e-01
2.3349132e-01
1.9218377e-01
1.6312184e-01
1.3515573e-01
8.4365183e-02
1.0763571e-02
-6.6103717e-02
-1.3202264e-01
-1.8407633e-01
-2.3371925e-01
-2.7476716e-01
-3.0842254e-01
-3.4637400e-01
-3.7290689e-01
-3.8391491e-01
-3.7652999e-01
-3.3610802e-01
-2.6059475e-01
-1.6362706e-01
-6.6671365e-02
2.3416541e-02
8.4933137e-02
1.0690986e-01
1.0705227e-01
7.3259386e-02
1.8254579e-02
-1.0031711e-02
6.8550108e-03
5.4974148e-02
1.0877796e-01
1.6955795e-01
2.2751505e-01
2.6135893e-01
2.7676818e-01
2.5710026e-01
2.0350239e-01
1.5541431e-01
1.3739628e-01
1.4821063e-01
1.6644304e-01
1.7727978e-01
1.6304718e-01
1.2651477e-01
8.8588354e-02
3.1773566e-02
-4.8273425e-02
-1.2437322e-01
-1.7802840e-01
-2.1412281e-01
-2.5567563e-01
-2.9916682e-01
-3.2742574e-01
-3.3419583e-01
-3.2409519e-01
-3.1359600e-01
-2.9553444e-01
-2.4909049e-01
-1.6593148e-01
-5.8447715e-02
4.0953099e-02
1.2169747e-01
1.7664979e-01
2.0204812e-01
2.0750915e-01
1.7006080e-01
9.4958531e-02
3.6085916e-02
2.3086896e-02
5.0810116e-02
9.8956285e-02
1.5761600e-01
2.0630626e-01
2.2459977e-01
2.2288823e-01
1.9248711e-01
1.3007708e-01
6.3767590e-02
1.6946060e-02
-2.0492738e-03
-7.1645853e-04
1.7313589e-02
3.2155459e-02
2.8815181e-02
1.8548063e-02
-1.8871218e-02
-8.4990781e-02
-1.3929602e-01
-1.6289760e-01
-1.6691532e-01
-1.6415752e-01
-1.4623881e-01
-1.2730706e-01
-1.2411065e-01
-1.2536552e-01
-1.3710073e-01
-1.4799584e-01
-1.3456742e-01
-9.3571610e-02
-2.6413420e-02
5.6051472e-02
1.3881804e-01
1.8742596e-01
1.8891661e-01
1.6618714e-01
1.2149094e-01
7.4471793e-02
5.6386428e-02
7.4540835e-02
1.1770146e-01
1.5653679e-01
1.7960248e-01
1.7311960e-01
1.3441295e-01
8.3214872e-02
2.8669811e-03
-9.6916130e-02
-1.6594640e-01
-1.8515958e-01
-1.8553249e-01
-2.0374944e-01
-2.2062147e-01
-2.2212835e-01
-2.1444115e-01
-2.0180207e-01
-2.0842353e-01
-2.2105194e-01
-2.0210923e-01
-1.3890296e-01
-4.9242676e-02
3.1336291e-02
1.0189695e-01
1.5762987e-01
1.9004589e-01
2.1077200e-01
1.9498183e-01
1.4298594e-01
1.0907212e-01
1.2836292e-01
1.8973952e-01
2.5307273e-01
2.9995035e-01
3.1718561e-01
2.9794051e-01
2.5960320e-01
1.8839442e-01
8.1094610e-02
-2.6674711e-02
-1.0861319e-01
-1.6682358e-01
-2.1779516e-01
-2.4960255e-01
-2.4782001e-01
-2.1387223e-01
-1.6413140e-01
-1.3953988e-01
-1.4239677e-01
-1.3595305e-01
-1.0264792e-01
-6.3535045e-02
-4.1679606e-02
-8.1195983e-03
3.9792575e-02
7.1513048e-02
8.9070230e-02
8.3685662e-02
5.8083941e-02
3.6157683e-02
2.8065781e-02
3.8804244e-02
6.1117276e-02
8.2994500e-02
8.1586051e-02
4.7338403e-02
1.3167884e-03
-5.3942248e-02
-1.1050441e-01
-1.4781260e-01
-1.6263011e-01
-1.6031771e-01
-1.4799993e-01
-1.2504914e-01
-1.1105783e-01
-1.2098178e-01
-1.3484792e-01
-1.4874247e-01
-1.5460946e-01
-1.3161380e-01
-7.3914885e-02
3.5443711e-03
7.3329656e-02
1.3333851e-01
1.7395758e-01
1.9341214e-01
2.0981699e-01
2.0167648e-01
1.6944024e-01
1.3539315e-01
1.0091398e-01
6.7423806e-02
3.2105814e-02
1.4110371e-02
2.1372505e-02
4.0328495e-02
6.1994946e-02
5.1013939e-02
3.3859826e-03
-3.4782850e-02
-3.0534921e-02
1.8537466e-02
8.8187381e-02
1.5430159e-01
1.8751846e-01
1.7959355e-01
1.4897434e-01
8.4518762e-02
-2.2746469e-03
-6.7979708e-02
-9.0206033e-02
-7.1302951e-02
-3.6346530e-02
4.4921427e-03
3.7928748e-02
4.8206766e-02
4.6615012e-02
1.8998059e-02
-3.6883503e-02
-9.2219973e-02
-1.3107636e-01
-1.4901020e-01
-1.5475842e-01
-1.4729998e-01
-1.3730082e-01
-1.4147594e-01
-1.5475237e-01
-1.8281162e-01
-2.1454572e-01
-2.2909440e-01
-2.2389571e-01
-2.0675690e-01
-1.9522784e-01
-1.8720804e-01
-1.8166048e-01
-1.7639896e-01
-1.6437006e-01
-1.6209776e-01
-1.5357470e-01
-9.5108982e-02
2.7724815e-02
1.8065779e-01
2.9999838e-01
3.6411654e-01
3.8522869e-01
3.7259120e-01
3.3541594e-01
2.6863433e-01
1.8261442e-01
1.1324544e-01
7.9396560e-02
6.3965567e-02
3.8794370e-02
1.4494123e-02
-4.8253271e-03
-2.2352865e-02
-2.3630438e-02
-3.7631991e-02
-7.3910954e-02
-9.5855329e-02
-8.5701340e-02
-5.3414388e-02
-2.9303027e-02
-1.6516487e-02
-7.5357480e-03
-4.0176597e-03
4.3177173e-03
2.6799298e-03
-1.6579892e-02
-3.5380411e-02
-3.3710343e-02
-3.3694740e-04
5.0255502e-02
1.1252913e-01
1.7630916e-01
2.2229103e-01
2.4696071e-01
2.3631078e-01
1.9076066e-01
1.3468097e-01
9.2392380e-02
7.9130021e-02
9.1904802e-02
1.3737360e-01
2.0297474e-01
2.5641430e-01
2.8664509e-01
2.6958535e-01
1.9941622e-01
1.0750895e-01
2.4224261e-02
-3.6110712e-02
-8.3380128e-02
-1.1691605e-01
-1.4074703e-01
-1.6929418e-01
-2.0234011e-01
-2.4608215e-01
-2.8681858e-01
-2.9629434e-01
-2.6560157e-01
-2.0375063e-01
-1.3643851e-01
-7.6910548e-02
-3.8077044e-02
-3.3040359e-02
-5.0858714e-02
-8.7586966e-02
-1.3052813e-01
-1.5684151e-01
-1.6111385e-01
-1.4973704e-01
-1.3753447e-01
-1.3210044e-01
-1.3992598e-01
-1.6661605e-01
-1.9961575e-01
-2.2684610e-01
-2.4027488e-01
-2.3102295e-01
-2.0085878e-01
-1.5652450e-01
-1.0607864e-01
-5.5502568e-02
-1.7982845e-02
-4.2103476e-03
6.0196465e-04
1.0510773e-02
3.7797420e-02
9.7363625e-02
1.9006114e-01
2.9355832e-01
3.6351448e-01
3.9131833e-01
3.9600038e-01
3.8469574e-01
3.6218198e-01
3.0518476e-01
2.1101965e-01
1.2601343e-01
8.4134964e-02
7.7501392e-02
6.1767657e-02
2.4473630e-02
-1.3228655e-03
7.1808959e-03
3.5790821e-02
3.5275112e-02
-3.8208172e-03
-4.9029889e-02
-8.3726845e-02
-9.2708991e-02
-8.6144343e-02
-8.1004578e-02
-7.9296869e-02
-9.0431052e-02
-1.1072859e-01
-1.4221048e-01
-1.7632173e-01
-1.9095225e-01
-1.7918777e-01
-1.3008607e-01
-5.8446724e-02
1.0459926e-02
6.4138255e-02
9.3971907e-02
1.1019999e-01
9.9278698e-02
5.9429233e-02
3.2844024e-02
4.4825736e-02
9.2204297e-02
1.3981481e-01
1.6442333e-01
1.6887314e-01
1.4837055e-01
1.1404395e-01
7.0626929e-02
2.1662537e-02
-1.5330049e-02
-3.3550279e-02
-3.1481162e-02
-2.1459650e-02
-1.3281752e-02
-1.5695399e-02
-3.5110372e-02
-5.9094134e-02
-9.3101836e-02
-1.3468958e-01
-1.5846533e-01
-1.5358613e-01
-1.2223776e-01
-9.6071547e-02
-1.0234478e-01
-1.3497083e-01
-1.8200510e-01
-2.1917957e-01
-2.3439467e-01
-2.2543277e-01
-1.8356515e-01
-1.0885979e-01
-6.8406415e-03
9.7805626e-02
1.8379634e-01
2.4287709e-01
2.6104802e-01
2.3850025e-01
1.8462727e-01
1.2290538e-01
7.9955905e-02
6.4545474e-02
7.7538224e-02
9.6565606e-02
1.0606653e-01
1.0286188e-01
7.5192924e-02
2.8332257e-02
-3.3548414e-02
-9.4703292e-02
-1.2492726e-01
-1.1485613e-01
-6.5536538e-02
-3.6446545e-03
4.0137973e-02
6.2838372e-02
6.0703333e-02
2.9610236e-02
-2.6197374e-02
-8.4861851e-02
-1.1918819e-01
-1.1966012e-01
-8.9125441e-02
-5.0389325e-02
-1.9129033e-02
-1.9518700e-03
-1.2001195e-02
-3.9509488e-02
-7.7540559e-02
-1.1841716e-01
-1.3685253e-01
-1.2009748e-01
-6.6842157e-02
1.6641370e-03
6.2132320e-02
1.0166893e-01
9.6176127e-02
6.0208605e-02
3.0238151e-02
1.5162955e-02
1.2788203e-02
1.9121907e-02
3.7555483e-02
5.7960798e-02
7.0975817e-02
7.6726218e-02
6.2825714e-02
3.3597455e-02
4.0903992e-04
-2.3194429e-02
-2.0739669e-02
9.4801719e-03
6.0172180e-02
1.0189951e-01
1.2041344e-01
1.2179939e-01
1.0498419e-01
7.5506191e-02
2.3715025e-02
-4.4281529e-02
-9.9034548e-02
-1.2550251e-01
-1.1764078e-01
-8.4480145e-02
-3.8249343e-02
9.2736270e-03
4.1413310e-02
4.9087567e-02
2.3872637e-02
-2.4061918e-02
-6.3174871e-02
-7.5851601e-02
-6.0422465e-02
-3.6652096e-02
-1.9658565e-02
-1.2667577e-02
-3.4929083e-02
-7.1561278e-02
-8.7779717e-02
-7.5568713e-02
-4.4040530e-02
-1.3789919e-02
6.9571869e-03
9.7472696e-03
-6.5998147e-03
-2.7817097e-02
-5.6403558e-02
-8.4039883e-02
-9.2932203e-02
-8.0965159e-02
-5.1945898e-02
-7.8385155e-03
5.1151818e-02
1.0626435e-01
1.5078222e-01
1.9088466e-01
2.1559609e-01
2.2017636e-01
1.8995383e-01
1.2928003e-01
7.5018855e-02
4.7196861e-02
5.1969842e-02
6.7944110e-02
7.0553997e-02
5.1371528e-02
3.6355507e-04
-5.9498191e-02
-1.0360550e-01
-1.2947370e-01
-1.2826218e-01
-9.5611088e-02
-3.6608125e-02
2.0020129e-02
5.2312186e-02
6.4394891e-02
5.1444666e-02
2.0713133e-02
-1.9047647e-02
-6.3785240e-02
-9.3659700e-02
-9.8097128e-02
-7.9236308e-02
-5.5916973e-02
-4.8918494e-02
-6.3174875e-02
-9.6948312e-02
-1.2912814e-01
-1.4056794e-01
-1.2372261e-01
-7.2721415e-02
-7.3256098e-03
4.6781730e-02
7.4280230e-02
7.5169340e-02
6.6046773e-02
3.7647294e-02
-9.5396930e-03
-4.5319213e-02
-5.6371354e-02
-4.1840178e-02
-3.6834946e-03
5.5532403e-02
1.2074111e-01
1.7514548e-01
2.1343770e-01
2.2954252e-01
2.2735613e-01
2.0809128e-01
1.7148021e-01
1.2420230e-01
7.3855410e-02
3.2864550e-02
-4.4097540e-03
-4.7193968e-02
-1.0086225e-01
-1.7241730e-01
-2.3865056e-01
-2.7661391e-01
-2.8639579e-01
-2.7145525e-01
-2.3882284e-01
-1.9165553e-01
-1.4900075e-01
-1.3001124e-01
-1.2380431e-01
-1.1978677e-01
-1.0985840e-01
-9.2684541e-02
-6.7241507e-02
-2.2215983e-02
4.2145085e-02
1.1771357e-01
1.8020790e-01
2.2049065e-01
2.5382229e-01
2.5920192e-01
2.3842448e-01
2.2676611e-01
2.2291021e-01
2.1203369e-01
1.8628490e-01
1.5374577e-01
1.2175730e-01
9.2909461e-02
7.7763019e-02
6.3085704e-02
4.1356706e-02
2.7973002e-02
2.4981068e-02
2.0719278e-02
8.2499870e-03
5.5380522e-03
6.8684314e-03
-1.3621527e-02
-5.1719984e-02
-1.1028678e-01
-1.7873216e-01
-2.2950690e-01
-2.6051899e-01
-2.7192777e-01
-2.6178682e-01
-2.3184880e-01
-1.9684363e-01
-1.7201098e-01
-1.5478486e-01
-1.4840945e-01
-1.4440098e-01
-1.2957169e-01
-1.0362355e-01
-5.8815141e-02
4.8917608e-03
8.3127376e-02
1.5795835e-01
2.1067651e-01
2.4882816e-01
2.4846475e-01
2.0247607e-01
1.5880150e-01
1.4122869e-01
1.3528661e-01
1.2105942e-01
1.0779390e-01
9.2832990e-02
5.6436693e-02
1.5927180e-02
-1.7871879e-02
-4.4115258e-02
-4.9347351e-02
-3.7925300e-02
-2.6150028e-02
-2.7726465e-02
-3.6801844e-02
-3.4555535e-02
-1.7040377e-02
-3.1003049e-04
-2.5122673e-02
-9.6792152e-02
-1.6748669e-01
-2.1080863e-01
-2.2460040e-01
-2.0866163e-01
-1.6081094e-01
-9.2023260e-02
-2.2653362e-02
3.7781232e-02
7.1536399e-02
8.6676624e-02
1.2122623e-01
1.8824741e-01
2.7640687e-01
3.5230934e-01
3.7832543e-01
3.4283792e-01
2.6478534e-01
1.7457214e-01
8.7349479e-02
1.6694008e-02
-3.2195671e-02
-6.9812069e-02
-1.0736860e-01
-1.5059041e-01
-1.8451754e-01
-1.9894767e-01
-1.9877205e-01
-1.8058050e-01
-1.5594280e-01
-1.3384513e-01
-1.0008987e-01
-5.6263091e-02
-2.0563396e-02
-7.0979051e-03
-5.2925449e-03
-1.0189360e-02
-3.4852788e-02
-6.5937410e-02
-9.5972589e-02
-1.3505708e-01
-1.8020629e-01
-2.1798029e-01
-2.3328483e-01
-2.2294481e-01
-1.9180910e-01
-1.4751933e-01
-9.6465550e-02
-3.6328505e-02
1.3154084e-02
3.9167074e-02
6.6560831e-02
1.0300974e-01
1.3867727e-01
1.5735904e-01
1.6154774e-01
1.7581657e-01
2.0716038e-01
2.4829225e-01
2.6697047e-01
2.5722866e-01
2.4968638e-01
2.3539941e-01
1.9118500e-01
1.2397445e-01
6.4374386e-02
2.8703682e-02
1.5219445e-02
2.2772565e-02
1.9510806e-02
-1.1029475e-02
-4.0751793e-02
-5.4836187e-02
-5.1362036e-02
-4.8507377e-02
-6.0358121e-02
-7.4154239e-02
-8.5764523e-02
-9.0872000e-02
-1.1316841e-01
-1.7113623e-01
-2.2631668e-01
-2.5268374e-01
-2.5084023e-01
-2.3049920e-01
-1.9689365e-01
-1.5498738e-01
-1.1582096e-01
-7.0630980e-02
-3.8480086e-02
-3.5609191e-02
-2.7055525e-02
3.1772750e-03
4.5280920e-02
8.0848693e-02
1.0177823e-01
1.2005480e-01
1.4369507e-01
1.8461941e-01
2.2287956e-01
2.3268774e-01
2.3917226e-01
2.5717870e-01
2.6826777e-01
2.5377621e-01
2.2333353e-01
1.8430388e-01
1.2759483e-01
8.1238754e-02
6.0898722e-02
5.2644354e-02
5.4020915e-02
5.3051683e-02
3.2871980e-02
-2.1013234e-02
-9.7254435e-02
-1.6984934e-01
-2.3250042e-01
-2.6687396e-01
-2.8081809e-01
-3.0392805e-01
-3.2746796e-01
-3.3973556e-01
-3.4009200e-01
-3.3175479e-01
-3.0837039e-01
-2.6252560e-01
-2.0089388e-01
-1.2178417e-01
-5.3112445e-02
-1.3945209e-02
3.7865606e-02
1.1832815e-01
1.9699447e-01
2.4109417e-01
2.5602178e-01
2.6624399e-01
2.7688874e-01
3.1141458e-01
3.5929238e-01
3.8220496e-01
3.8586386e-01
3.6883914e-01
3.1513215e-01
2.1933882e-01
1.0659153e-01
1.3290589e-02
-5.3948126e-02
-8.8327699e-02
-1.0492777e-01
-1.2775052e-01
-1.4849655e-01
-1.6558928e-01
-1.8534203e-01
-2.1453903e-01
-2.4497839e-01
-2.5907946e-01
-2.5646353e-01
-2.2863064e-01
-1.9698196e-01
-1.9146051e-01
-1.8382750e-01
-1.5558151e-01
-1.2179562e-01
-1.0278890e-01
-9.9102482e-02
-8.3928323e-02
-4.4731978e-02
1.1205593e-02
4.8746847e-02
5.3659992e-02
6.8793591e-02
1.0907747e-01
1.4840335e-01
1.6245144e-01
1.5780178e-01
1.5147943e-01
1.4519835e-01
1.5438444e-01
1.6666817e-01
1.6066162e-01
1.5258056e-01
1.4624639e-01
1.3593837e-01
1.1253981e-01
8.0807339e-02
5.3474940e-02
2.6792421e-02
2.2889178e-02
3.0105931e-02
1.6667962e-02
7.3067518e-03
1.4247178e-02
2.6265478e-02
3.4197888e-02
3.8089031e-02
4.7095665e-02
5.9864235e-02
8.1083073e-02
9.0569007e-02
6.8285070e-02
3.5816250e-02
-3.9987518e-03
-5.6734407e-02
-1.2196498e-01
-1.9435195e-01
-2.5762988e-01
-3.0696509e-01
-3.3282576e-01
-3.4399851e-01
-3.5416377e-01
-3.4222572e-01
-2.9634668e-01
-2.2088989e-01
-1.3796406e-01
-7.2211579e-02
-3.3581569e-02
-2.6121411e-02
-1.9506000e-02
2.5490266e-03
3.3003862e-02
8.3333144e-02
1.5355289e-01
2.3464534e-01
3.0794735e-01
3.6243558e-01
4.1716022e-01
4.7230780e-01
5.0683388e-01
5.0197771e-01
4.6540533e-01
4.3209875e-01
4.0111005e-01
3.3820117e-01
2.2267335e-01
7.7772447e-02
-5.6843948e-02
-1.7207643e-01
-2.5717006e-01
-3.0322287e-01
-3.1800359e-01
-3.0548893e-01
-2.7446857e-01
-2.3689860e-01
-2.0794966e-01
-1.9857540e-01
-2.0374804e-01
-2.1638628e-01
-2.2499885e-01
-2.2691366e-01
-2.2897907e-01
-2.2157276e-01
-1.9899456e-01
-1.6607103e-01
-1.3167511e-01
-9.9625046e-02
-5.9900987e-02
-1.2438721e-02
3.8731733e-02
7.5847071e-02
8.2679827e-02
8.3127283e-02
9.3410448e-02
1.0747923e-01
1.0690939e-01
8.0434113e-02
5.1323486e-02
3.6339292e-02
3.7277081e-02
3.3327063e-02
2.8262595e-03
-2.8440757e-02
-4.0001984e-02
-3.8291560e-02
-4.3701450e-02
-6.6651609e-02
-9.1649073e-02
-1.1480060e-01
-1.2726905e-01
-1.2490167e-01
-1.2113501e-01
-1.1299220e-01
-9.3481970e-02
-5.8566787e-02
-2.2006944e-02
5.5844875e-03
3.6769408e-02
6.8586184e-02
1.1489311e-01
1.7841290e-01
2.2888944e-01
2.6425110e-01
2.7864511e-01
2.5454714e-01
1.9371885e-01
1.2537329e-01
9.3131393e-02
1.0638914e-01
1.4026316e-01
1.5860465e-01
1.4932589e-01
1.3814297e-01
1.2832232e-01
9.8238994e-02
3.9606465e-02
-2.7981939e-02
-7.3295530e-02
-1.0128677e-01
-1.2365045e-01
-1.3497437e-01
-1.3766835e-01
-1.3084677e-01
-1.1894574e-01
-1.0904191e-01
-1.0678565e-01
-1.1018218e-01
-1.0735616e-01
-1.0348455e-01
-9.6746020e-02
-8.9576499e-02
-9.3617786e-02
-9.8264783e-02
-9.7022587e-02
-9.4454972e-02
-9.4240151e-02
-9.0420837e-02
-6.7272774e-02
-2.6722105e-02
2.3085663e-02
6.6012230e-02
8.3656901e-02
9.8863079e-02
1.2961992e-01
1.5880845e-01
1.5478198e-01
1.1033097e-01
6.2789843e-02
2.7687507e-02
7.7530111e-03
-3.1286550e-03
-2.4269141e-02
-3.5722924e-02
-2.2593283e-02
-1.5829965e-03
7.5209190e-04
-2.0336033e-02
-3.6271784e-02
-3.7972249e-02
-3.1734179e-02
-2.2723642e-02
-1.5142562e-02
1.1258179e-03
2.8309984e-02
5.4670460e-02
5.6207179e-02
2.8329878e-02
-2.0025249e-03
-2.7259580e-02
-3.5880781e-02
-2.6444459e-02
-2.1410159e-02
-1.3022301e-02
5.2499654e-03
2.2506977e-02
2.6748411e-02
1.7012121e-02
1.2199130e-02
1.3829249e-02
2.1609360e-02
3.7957989e-02
5.2342474e-02
6.7242158e-02
7.9767720e-02
7.7655658e-02
4.4613071e-02
-1.8037889e-02
-7.7579735e-02
-1.2265680e-01
-1.4854127e-01
-1.5369581e-01
-1.5087917e-01
-1.2854894e-01
-7.8231202e-02
-1.5650631e-02
3.1627626e-02
5.5243796e-02
7.2589901e-02
7.9447109e-02
7.7441718e-02
8.1221519e-02
8.7348800e-02
1.0138111e-01
1.2242632e-01
1.3322186e-01
1.1339918e-01
6.1209185e-02
1.1671204e-02
-2.3996287e-02
-4.9439232e-02
-5.7758700e-02
-5.8859946e-02
-5.3742328e-02
-4.3004616e-02
-4.0114008e-02
-6.0635484e-02
-1.0399270e-01
-1.3702161e-01
-1.4751596e-01
-1.4277768e-01
-1.2331365e-01
-9.7821301e-02
-6.4519943e-02
-2.7821995e-02
-1.2166480e-02
-3.2858778e-02
-7.3207855e-02
-9.4899797e-02
-8.5283170e-02
-4.8743993e-02
-4.1307733e-03
2.4778692e-02
6.2462297e-02
1.2187868e-01
1.7509006e-01
1.9598926e-01
1.8316464e-01
1.7100918e-01
1.6604171e-01
1.5705553e-01
1.5797081e-01
1.7157363e-01
1.9832972e-01
2.2780079e-01
2.2773644e-01
1.7258731e-01
7.4972227e-02
-1.3854429e-02
-7.1694714e-02
-1.0152464e-01
-1.0632188e-01
-1.0174238e-01
-9.3677256e-02
-9.1302241e-02
-1.0934762e-01
-1.4651048e-01
-1.8819665e-01
-2.0976475e-01
-2.0239866e-01
-1.7263432e-01
-1.2684123e-01
-7.0641348e-02
-1.9570743e-03
6.8435507e-02
1.1415881e-01
1.0660973e-01
4.7321822e-02
-1.8709648e-02
-7.1163652e-02
-1.1123714e-01
-1.3084689e-01
-1.3262764e-01
-1.1089571e-01
-6.4436694e-02
-1.3325484e-02
1.6759528e-02
1.8565851e-02
2.0767301e-02
2.6913115e-02
2.3561926e-02
2.2446721e-02
2.6961867e-02
4.0015413e-02
6.4430879e-02
9.1969194e-02
1.0694386e-01
1.0415941e-01
1.0557329e-01
1.0816950e-01
9.8773316e-02
9.2074573e-02
8.9438842e-02
9.0029610e-02
9.8688635e-02
1.1219675e-01
1.1390929e-01
9.2121115e-02
6.9458938e-02
4.7377195e-02
1.1947919e-02
-2.2980768e-02
-4.9784729e-02
-6.8723019e-02
-7.8438588e-02
-7.9483576e-02
-7.2452865e-02
-5.6503072e-02
-3.1055620e-02
-1.7119884e-02
-3.0411819e-02
-5.3539861e-02
-7.4905929e-02
-9.5214502e-02
-1.1356208e-01
-1.2801628e-01
-1.3820863e-01
-1.4440966e-01
-1.3402521e-01
-1.1257016e-01
-9.6430017e-02
-7.8866634e-02
-6.0660344e-02
-4.4724915e-02
-3.0929111e-02
-2.4404846e-02
-2.3224840e-02
-2.2696223e-02
-1.4593097e-02
-2.2677556e-03
7.6919539e-03
2.1416736e-02
3.9959095e-02
7.0851095e-02
1.1968453e-01
1.7097050e-01
1.9598443e-01
1.7774087e-01
1.3731712e-01
9.3554114e-02
5.3110820e-02
2.9673397e-02
2.1399071e-02
2.8268171e-02
4.7900674e-02
6.1072695e-02
5.3534934e-02
2.4984073e-02
-3.9970515e-03
-2.4926178e-02
-4.2742634e-02
-4.7932736e-02
-4.1947347e-02
-3.0062341e-02
-1.6244534e-02
-1.0229902e-02
-1.5892233e-02
-3.2497378e-02
-4.8260326e-02
-6.2939676e-02
-8.0876384e-02
-8.6744979e-02
-7.9405753e-02
-6.5890028e-02
-4.8925165e-02
-3.4581935e-02
-2.9207890e-02
-3.6224825e-02
-4.0492439e-02
-4.3594161e-02
-5.9707416e-02
-7.3500980e-02
-7.5568840e-02
-6.3667551e-02
-3.2560059e-02
1.1290546e-02
5.9594260e-02
1.0267823e-01
1.3866747e-01
1.5983491e-01
1.5732575e-01
1.5293946e-01
1.6007246e-01
1.6978106e-01
1.6764073e-01
1.4223760e-01
1.0008179e-01
5.4703081e-02
1.6704252e-02
-1.7438930e-02
-5.0838882e-02
-7.0480125e-02
-7.5710891e-02
-7.1083542e-02
-5.6665667e-02
-3.7988750e-02
-1.7318504e-02
-6.2963122e-03
-1.0902068e-02
-2.6998526e-02
-5.2503502e-02
-7.2393553e-02
-7.9651221e-02
-7.4852619e-02
-5.7619618e-02
-3.5563168e-02
-2.0900431e-02
-2.3913188e-02
-3.2775415e-02
-3.7925232e-02
-4.6008441e-02
-5.3078839e-02
-5.6576638e-02
-5.3769507e-02
-4.0182326e-02
-2.3973409e-02
-1.4806445e-02
-1.8934301e-02
-3.3435498e-02
-5.0811346e-02
-6.2798714e-02
-5.8719689e-02
-4.4635810e-02
-2.4740412e-02
7.7721333e-03
5.2137475e-02
9.2356037e-02
1.0198423e-01
8.7180055e-02
7.2655838e-02
6.9333402e-02
8.4649432e-02
1.1022184e-01
1.3304075e-01
1.5110903e-01
1.6264893e-01
1.5344920e-01
1.1431993e-01
7.0893615e-02
3.6766620e-02
1.0026822e-04
-3.3138846e-02
-6.1613643e-02
-9.0759191e-02
-1.1708608e-01
-1.3921317e-01
-1.5144399e-01
-1.5476499e-01
-1.5243004e-01
-1.4258441e-01
-1.2925615e-01
-1.1110850e-01
-9.0755442e-02
-7.3553124e-02
-5.8089520e-02
-4.5612667e-02
-3.5493607e-02
-2.7708734e-02
-1.5464040e-02
9.6675133e-03
4.4227494e-02
8.9973071e-02
1.3763854e-01
1.6830880e-01
1.8035391e-01
1.7690767e-01
1.5905567e-01
1.2120965e-01
7.0705551e-02
2.8742791e-02
3.2811907e-04
-9.5535703e-03
-1.7989762e-03
1.4772720e-02
3.8858467e-02
6.4082889e-02
7.9080990e-02
7.1264928e-02
4.6746394e-02
1.9685896e-02
-8.1843766e-03
-2.3449406e-02
-2.2822429e-02
-1.6706761e-02
-5.8382137e-03
5.7326923e-03
8.5890310e-03
-4.9061666e-03
-2.9470548e-02
-5.5302062e-02
-7.7882664e-02
-9.2227312e-02
-9.8903386e-02
-9.8604620e-02
-9.3051244e-02
-8.9200363e-02
-9.4739989e-02
-1.1630402e-01
-1.4785371e-01
-1.7782127e-01
-1.9940024e-01
-2.1048551e-01
-2.1373387e-01
-2.0683521e-01
-1.8685416e-01
-1.5788228e-01
-1.2328980e-01
-8.6847866e-02
-5.7820092e-02
-4.0493736e-02
-2.9396611e-02
-1.5197586e-02
1.1082540e-02
5.3470665e-02
9.9060738e-02
1.3212121e-01
1.5410482e-01
1.5808357e-01
1.4722458e-01
1.3072616e-01
1.0683155e-01
9.5630720e-02
1.0398520e-01
1.2705737e-01
1.7092396e-01
2.3230342e-01
2.9710516e-01
3.3637849e-01
3.3086663e-01
2.8401605e-01
2.1507399e-01
1.6358736e-01
1.4595556e-01
1.4492379e-01
1.4080555e-01
1.2134169e-01
9.3179197e-02
5.8764889e-02
1.4834217e-02
-3.4723779e-02
-8.3833257e-02
-1.1782344e-01
-1.3864540e-01
-1.5823018e-01
-1.6993905e-01
-1.6892948e-01
-1.5856703e-01
-1.4961517e-01
-1.4924652e-01
-1.5384371e-01
-1.6255310e-01
-1.6995324e-01
-1.7780148e-01
-1.8733297e-01
-1.8536142e-01
-1.6425083e-01
-1.2286093e-01
-7.5226115e-02
-3.8777593e-02
-1.0947740e-02
1.5916255e-02
4.9643535e-02
9.2919794e-02
1.4274528e-01
1.8835838e-01
2.1728263e-01
2.2980273e-01
2.1084530e-01
1.5616620e-01
8.8042662e-02
1.5227993e-02
-5.3160084e-02
-1.0835856e-01
-1.4412153e-01
-1.5250605e-01
-1.4126322e-01
-1.2184258e-01
-1.0621454e-01
-9.7923345e-02
-8.5222224e-02
-6.6083001e-02
-4.1998020e-02
-1.1810758e-02
2.7629094e-02
7.9767160e-02
1.2874199e-01
1.5362991e-01
1.3540358e-01
7.6837124e-02
9.7882036e-03
-4.9394030e-02
-8.8478568e-02
-1.0062530e-01
-9.0723249e-02
-6.3170225e-02
-2.9638993e-02
4.0228032e-03
1.9716303e-02
7.5683846e-03
-4.0652817e-03
1.3947572e-03
2.3702233e-02
4.3964873e-02
3.5543078e-02
8.0463690e-03
-1.9376189e-02
-3.5442692e-02
-4.3425720e-02
-5.2037439e-02
-5.3032713e-02
-4.7476003e-02
-3.6049489e-02
-1.8471454e-02
-6.2012184e-03
-1.6682453e-03
-1.2696615e-03
2.6780429e-03
-4.4046288e-03
-3.5991123e-02
-6.5224891e-02
-7.9502623e-02
-7.8110278e-02
-6.5614200e-02
-5.5052299e-02
-3.5605978e-02
4.0261886e-03
6.1091862e-02
1.0451494e-01
1.1395108e-01
1.1452516e-01
1.2456857e-01
1.6484916e-01
2.3053568e-01
2.7929513e-01
2.8990215e-01
2.6015591e-01
2.0989450e-01
1.4844976e-01
7.2253221e-02
-1.3147361e-03
-6.1432930e-02
-9.3187519e-02
-1.0066900e-01
-1.1089037e-01
-1.1639160e-01
-1.0276588e-01
-7.6968027e-02
-7.2752471e-02
-1.0704650e-01
-1.4570441e-01
-1.7217945e-01
-1.8655398e-01
-1.8669610e-01
-1.7763931e-01
-1.6164051e-01
-1.4554666e-01
-1.2724284e-01
-1.1675825e-01
-1.2448871e-01
-1.2247411e-01
-9.9069896e-02
-6.4837882e-02
-2.8822187e-02
9.5960546e-04
3.3373052e-02
7.8772733e-02
1.4113440e-01
1.9980329e-01
2.3337787e-01
2.4926735e-01
2.4847307e-01
2.5076060e-01
2.6826547e-01
2.6850135e-01
2.3741746e-01
1.9126426e-01
1.5285174e-01
1.2120619e-01
8.5982108e-02
5.9266632e-02
3.6490861e-02
1.4201662e-02
-7.8034799e-03
-4.4550711e-02
-8.7578412e-02
-1.2002569e-01
-1.3128376e-01
-1.3470296e-01
-1.5282375e-01
-1.7800454e-01
-2.0558679e-01
-2.2762990e-01
-2.4039065e-01
-2.5606563e-01
-2.6196585e-01
-2.4237608e-01
-1.9566924e-01
-1.4851915e-01
-1.3036731e-01
-1.1909608e-01
-1.0101321e-01
-8.0938019e-02
-6.1604836e-02
-5.4708205e-02
-4.6795365e-02
-1.4247955e-02
4.8805504e-02
1.1498427e-01
1.6099027e-01
2.0205806e-01
2.3045905e-01
2.3984698e-01
2.3668179e-01
2.1014543e-01
1.7303049e-01
1.4821945e-01
1.4886636e-01
1.5984927e-01
1.5788662e-01
1.5686420e-01
1.5475124e-01
1.4909588e-01
1.4154946e-01
1.0595600e-01
4.8431070e-02
-4.8461375e-03
-4.0854091e-02
-6.9273686e-02
-1.0663461e-01
-1.4703102e-01
-1.9493347e-01
-2.4183969e-01
-2.7328158e-01
-3.0192129e-01
-3.2401443e-01
-3.2345761e-01
-2.9202710e-01
-2.4133739e-01
-1.8471648e-01
-1.1291041e-01
-4.4609261e-02
5.8540984e-03
4.7140234e-02
6.6449623e-02
7.7884852e-02
1.1380027e-01
1.8503461e-01
2.6662009e-01
3.2574888e-01
3.6871610e-01
3.8407335e-01
3.6838264e-01
3.4007135e-01
2.7471575e-01
1.7279148e-01
7.6338654e-02
1.1082319e-02
-3.8136006e-02
-1.0034664e-01
-1.5969705e-01
-1.9316307e-01
-1.8979116e-01
-1.6424882e-01
-1.6337930e-01
-1.8692968e-01
-1.9654905e-01
-1.6888875e-01
-1.1385338e-01
-5.0325261e-02
1.8544137e-02
6.1625078e-02
6.6980712e-02
5.2439684e-02
8.0454817e-03
-4.6061865e-02
-6.6292691e-02
-3.6994658e-02
1.6879906e-02
6.3627177e-02
1.0700281e-01
1.2739029e-01
1.1700338e-01
9.4272935e-02
3.6866597e-02
-4.8211666e-02
-1.1504160e-01
-1.3861636e-01
-1.2827821e-01
-1.0306937e-01
-5.8347227e-02
-7.7607200e-03
3.7250205e-02
7.5828668e-02
6.9133375e-02
1.8065034e-02
-1.6406067e-02
2.8351697e-03
5.5659327e-02
1.1202393e-01
1.7198483e-01
2.0968460e-01
2.0967828e-01
1.8676698e-01
1.2418283e-01
3.0935724e-02
-4.9004986e-02
-9.0598516e-02
-9.9609707e-02
-9.2140818e-02
-6.7413552e-02
-4.1622076e-02
-2.6613638e-02
-2.1607894e-02
-5.4455745e-02
-1.2105592e-01
-1.8388626e-01
-2.2361072e-01
-2.3694577e-01
-2.2451521e-01
-1.8609462e-01
-1.5156444e-01
-1.3982840e-01
-1.3378421e-01
-1.3326912e-01
-1.2910300e-01
-1.0150187e-01
-4.4243583e-02
3.1183771e-02
1.0247858e-01
1.6241707e-01
1.8943332e-01
1.8204027e-01
1.6558435e-01
1.2681849e-01
7.0481000e-02
3.6829449e-02
4.9777924e-02
9.9555305e-02
1.5427995e-01
1.9891494e-01
2.1714891e-01
2.0618907e-01
1.8250195e-01
1.3302539e-01
6.5737346e-02
1.8208357e-02
9.4333505e-03
1.8850104e-02
1.5930085e-02
1.7449265e-02
2.1205104e-02
9.2835554e-03
-6.5726958e-03
-3.4349165e-02
-6.6482090e-02
-7.6465178e-02
-5.8446900e-02
-2.6114047e-02
-5.5536071e-04
2.2713682e-02
2.8641333e-02
2.3536165e-03
-3.9940215e-02
-1.0323335e-01
-1.6682075e-01
-1.9449962e-01
-1.8024907e-01
-1.3369323e-01
-7.5759717e-02
-1.6160218e-02
2.3118203e-02
2.9106750e-02
1.6959502e-02
-2.0343387e-02
-6.9628927e-02
-1.0120498e-01
-1.0782414e-01
-9.8687840e-02
-8.7424324e-02
-6.0132040e-02
-2.2754687e-02
4.1148512e-03
2.2261416e-02
1.4099063e-02
-1.5803756e-02
-2.8008185e-02
-2.2296047e-03
4.2060086e-02
6.5417356e-02
7.0830268e-02
6.5010662e-02
4.3792673e-02
1.8470543e-02
-2.3792997e-02
-7.1858165e-02
-8.5377746e-02
-4.7496480e-02
2.6017924e-02
9.6464383e-02
1.5059347e-01
1.8178562e-01
1.9056526e-01
1.9146419e-01
1.6160632e-01
1.0271408e-01
5.9016586e-02
5.4975268e-02
8.0793292e-02
9.7093987e-02
9.1888743e-02
7.4138172e-02
4.7150791e-02
2.3146076e-02
-7.8496242e-03
-4.8187182e-02
-7.3845134e-02
-7.0332344e-02
-3.8856013e-02
-5.3793191e-04
3.3768072e-02
5.3576659e-02
4.9041089e-02
2.8934114e-02
-2.2660170e-02
-9.8915713e-02
-1.5833258e-01
-1.8344026e-01
-1.7695271e-01
-1.5390252e-01
-1.2159029e-01
-9.5109181e-02
-9.0389122e-02
-1.0043377e-01
-1.2687721e-01
-1.5290880e-01
-1.5122835e-01
-1.1885873e-01
-5.9350226e-02
1.0932294e-02
7.2395837e-02
1.0213358e-01
9.1200555e-02
5.8488635e-02
5.8346938e-03
-5.3284991e-02
-8.6376117e-02
-8.2642223e-02
-4.5493146e-02
1.0450281e-02
6.9890092e-02
1.1086620e-01
1.2369764e-01
1.1551026e-01
7.4480276e-02
1.7624017e-02
-9.8710803e-03
1.4350710e-02
6.9779938e-02
1.0675327e-01
1.1272286e-01
1.0896679e-01
1.1662493e-01
1.2746934e-01
9.5051165e-02
2.1893802e-02
-3.5403761e-02
-4.7019338e-02
-2.6784591e-02
-5.1742047e-03
1.8062367e-02
3.4018922e-02
2.2365496e-02
-6.7853776e-03
-5.6558615e-02
-1.1283322e-01
-1.3902648e-01
-1.2054447e-01
-6.3735900e-02
-7.2663104e-03
2.4387280e-02
3.1253219e-02
1.2611924e-02
-1.5567919e-02
-5.6286386e-02
-1.0376166e-01
-1.2740409e-01
-1.1502268e-01
-7.2081860e-02
-3.1303233e-02
-9.9740901e-03
-8.9442076e-03
-3.4529810e-02
-7.0108030e-02
-1.0767725e-01
-1.3442202e-01
-1.2829491e-01
-8.8865339e-02
-2.3380483e-02
3.7652869e-02
7.4805784e-02
9.4640651e-02
1.0420402e-01
1.1031546e-01
9.6243748e-02
7.2781971e-02
7.9708976e-02
1.2859298e-01
1.9825902e-01
2.4392162e-01
2.5710109e-01
2.5805030e-01
2.5157892e-01
2.3980198e-01
2.0503293e-01
1.4094302e-01
7.2428280e-02
1.6948648e-02
-1.1313894e-02
-1.9968757e-02
-2.4955186e-02
-3.5793882e-02
-6.3961139e-02
-1.0334968e-01
-1.5236579e-01
-2.0122815e-01
-2.3056395e-01
-2.3705184e-01
-2.2013570e-01
-1.8830120e-01
-1.4584040e-01
-9.2304032e-02
-4.1641236e-02
-1.1691147e-02
-2.4280545e-02
-7.2217409e-02
-1.1496629e-01
-1.2620383e-01
-9.6648108e-02
-5.2613277e-02
-2.9132791e-02
-3.5814504e-02
-7.1308992e-02
-1.1003334e-01
-1.3949492e-01
-1.5642380e-01
-1.3970914e-01
-7.6842557e-02
3.6180232e-02
1.6910462e-01
2.8182894e-01
3.6474284e-01
4.0683672e-01
4.0641454e-01
3.7197595e-01
3.1542046e-01
2.5385142e-01
1.9603325e-01
1.5191071e-01
1.2036699e-01
9.4738798e-02
6.4942336e-02
2.4426803e-02
-1.2486917e-02
-5.2215978e-02
-9.9009036e-02
-1.3127982e-01
-1.4122838e-01
-1.3225837e-01
-1.2959370e-01
-1.5075789e-01
-1.8453310e-01
-2.2643658e-01
-2.6602011e-01
-2.9784925e-01
-3.1812009e-01
-3.1063423e-01
-2.6855427e-01
-1.9508655e-01
-1.1470848e-01
-4.6213232e-02
9.6353437e-03
4.6736032e-02
6.7346261e-02
6.0831574e-02
2.9945293e-02
1.1039473e-02
2.5788846e-02
7.8089905e-02
1.3750400e-01
1.7453344e-01
1.9438780e-01
1.9197547e-01
1.6796371e-01
1.3221756e-01
9.7853078e-02
7.4925409e-02
6.1515558e-02
6.8913887e-02
8.4135798e-02
8.4316852e-02
6.8125882e-02
3.3039694e-02
-5.6522251e-03
-4.0131214e-02
-7.0199472e-02
-8.2174843e-02
-7.1079206e-02
-3.3171584e-02
9.6680625e-03
2.9176333e-02
2.6470642e-02
2.6756125e-03
-3.4437692e-02
-7.7110887e-02
-1.1756972e-01
-1.3516880e-01
-1.2151562e-01
-7.9685482e-02
-3.1192738e-02
1.9529635e-03
1.5024920e-02
1.6404669e-03
-2.8864817e-02
-6.7908827e-02
-1.0785467e-01
-1.2797327e-01
-1.2136618e-01
-9.0744024e-02
-4.5506641e-02
1.0590535e-02
7.5495550e-02
1.1719384e-01
1.0865703e-01
5.7295356e-02
-5.8349044e-03
-4.2763697e-02
-3.2143942e-02
2.7369248e-02
9.8520988e-02
1.4122344e-01
1.4827473e-01
1.1062716e-01
4.5160487e-02
-1.0385708e-02
-4.1569130e-02
-4.8048640e-02
-2.7958833e-02
2.4287015e-02
8.0710059e-02
1.0599431e-01
9.8547229e-02
6.6259664e-02
2.4144442e-02
-1.8717637e-02
-5.1932983e-02
-6.7180007e-02
-7.1136977e-02
-6.0219221e-02
-3.4145953e-02
3.1267190e-03
4.8303535e-02
6.9910306e-02
5.5535354e-02
3.4018969e-02
2.2449965e-02
3.0458069e-02
6.2066850e-02
1.1420470e-01
1.6815854e-01
2.0152119e-01
2.1375505e-01
2.0005400e-01
1.6670591e-01
1.1876569e-01
5.1125159e-02
-2.1328771e-02
-7.8820031e-02
-1.0529056e-01
-1.1531757e-01
-1.3209460e-01
-1.5931400e-01
-2.0287744e-01
-2.4463360e-01
-2.6570460e-01
-2.6719424e-01
-2.4906514e-01
-2.1977215e-01
-1.8113084e-01
-1.3294394e-01
-7.9589005e-02
-2.9209065e-02
-3.1244919e-03
-7.2858488e-03
-3.5648351e-02
-7.3505692e-02
-9.6178048e-02
-9.1612445e-02
-5.2998448e-02
2.7628010e-03
5.2790496e-02
9.9881154e-02
1.2682376e-01
1.2757253e-01
1.3212281e-01
1.5248423e-01
1.8591191e-01
2.3267830e-01
2.9696690e-01
3.5535598e-01
3.8143823e-01
3.9403557e-01
3.9704428e-01
3.6538006e-01
2.8768484e-01
1.7925778e-01
6.7011803e-02
-3.1135578e-02
-1.0601759e-01
-1.5930269e-01
-1.9415894e-01
-2.1106699e-01
-2.1927655e-01
-2.2502019e-01
-2.2566223e-01
-2.2019811e-01
-2.0899223e-01
-1.9187033e-01
-1.6542455e-01
-1.2816843e-01
-8.3605306e-02
-4.1639470e-02
-1.5964632e-02
-8.6455371e-03
-1.4827869e-02
-2.9633790e-02
-4.8049553e-02
-6.8718358e-02
-8.7855722e-02
-1.0222932e-01
-1.0958117e-01
-1.1278617e-01
-1.2349947e-01
-1.4394907e-01
-1.6834475e-01
-1.8809163e-01
-1.9071990e-01
-1.6994960e-01
-1.2613021e-01
-7.0147900e-02
-1.5919885e-02
3.1560684e-02
7.0747723e-02
1.0956534e-01
1.5645380e-01
2.0999047e-01
2.6015668e-01
2.9159492e-01
3.0106481e-01
2.8190819e-01
2.3292686e-01
1.7749379e-01
1.2452702e-01
7.3897420e-02
3.3086672e-02
3.8627975e-03
-1.3445192e-02
-2.0615325e-02
-1.7077348e-02
-1.0675383e-02
-1.4282727e-02
-3.2011344e-02
-7.3659294e-02
-1.3072032e-01
-1.8144561e-01
-2.1722226e-01
-2.3232252e-01
-2.2760906e-01
-2.0787059e-01
-1.8399195e-01
-1.6644921e-01
-1.5702401e-01
-1.6108539e-01
-1.6863645e-01
-1.6259488e-01
-1.4264960e-01
-1.1052133e-01
-7.0015877e-02
-2.2365687e-02
2.2067555e-02
5.1270852e-02
7.0609176e-02
7.2310680e-02
6.0192567e-02
5.8228478e-02
7.4857743e-02
1.0336894e-01
1.3573816e-01
1.8048357e-01
2.2941926e-01
2.6570648e-01
2.9014776e-01
2.7744118e-01
2.1951874e-01
1.4913302e-01
8.5156816e-02
3.0504247e-02
-2.1678829e-02
-6.9418065e-02
-1.0266895e-01
-1.1851673e-01
-1.2163697e-01
-1.4150868e-01
-1.8564753e-01
-2.2277742e-01
-2.3929073e-01
-2.4942411e-01
-2.6185038e-01
-2.5114048e-01
-2.1071551e-01
-1.5661560e-01
-8.7280057e-02
-2.5465808e-02
2.1109228e-02
7.5836105e-02
1.2467937e-01
1.4496053e-01
1.4166252e-01
1.4109909e-01
1.5460851e-01
1.7426959e-01
2.0101056e-01
2.2489086e-01
2.5146606e-01
2.9308696e-01
3.3076839e-01
3.4568577e-01
3.3657441e-01
3.2470571e-01
3.1996896e-01
3.0988681e-01
2.9728975e-01
2.7863906e-01
2.5182415e-01
2.1708663e-01
1.5653830e-01
6.4194286e-02
-3.9166663e-02
-1.1421331e-01
-1.5309596e-01
-1.7127672e-01
-1.6878429e-01
-1.6915429e-01
-1.9042591e-01
-2.1337427e-01
-2.3344234e-01
-2.6729914e-01
-3.1107886e-01
-3.3496353e-01
-3.2511303e-01
-2.8664590e-01
-2.3127678e-01
-1.8960799e-01
-1.6974179e-01
-1.4662372e-01
-1.0803869e-01
-6.7735961e-02
-3.8772615e-02
-7.2436299e-04
4.9144555e-02
9.3472366e-02
1.2960178e-01
1.2506942e-01
7.4713429e-02
3.0420086e-02
2.0978106e-02
3.6298119e-02
5.7769790e-02
8.8595067e-02
1.2229561e-01
1.3901300e-01
1.3553805e-01
9.5784775e-02
2.6948062e-02
-3.0050709e-02
-5.8087537e-02
-6.5665393e-02
-5.9745401e-02
-3.1823039e-02
1.2727519e-02
5.8942290e-02
9.9935704e-02
1.1773242e-01
1.1671995e-01
1.2047212e-01
1.2520228e-01
1.1002655e-01
6.3304194e-02
2.3449644e-03
-5.7845835e-02
-1.1862309e-01
-1.7005460e-01
-2.1151530e-01
-2.4510089e-01
-2.6246072e-01
-2.6504929e-01
-2.6037567e-01
-2.5306825e-01
-2.3635239e-01
-2.0057671e-01
-1.5035381e-01
-9.7016954e-02
-5.8178376e-02
-3.8075069e-02
-1.5428341e-02
2.1845404e-02
6.9691617e-02
1.1687946e-01
1.6646027e-01
2.1762712e-01
2.5610414e-01
2.8324507e-01
2.7537064e-01
2.2504747e-01
1.7166011e-01
1.2957741e-01
8.4896426e-02
3.8323589e-02
1.7020185e-02
1.6942320e-02
1.7743970e-02
3.0695331e-02
4.0894482e-02
3.8500018e-02
5.0332601e-02
7.4980036e-02
9.7961343e-02
1.0988582e-01
1.1569813e-01
1.1803479e-01
1.0530045e-01
9.3608598e-02
7.4052527e-02
2.3992928e-02
-3.7845626e-02
-9.0521297e-02
-1.3007063e-01
-1.6221476e-01
-1.8228946e-01
-1.9311150e-01
-2.0678837e-01
-2.1742383e-01
-2.2709052e-01
-2.3272729e-01
-2.2062397e-01
-1.8958963e-01
-1.4693092e-01
-1.1039833e-01
-9.3587772e-02
-1.0188816e-01
-1.2779161e-01
-1.4907803e-01
-1.5812166e-01
-1.5322221e-01
-1.2385552e-01
-6.9290296e-02
-1.3391053e-04
7.1514850e-02
1.4783051e-01
2.1873102e-01
2.6638708e-01
2.9959891e-01
3.0068782e-01
2.6266950e-01
2.3201731e-01
2.3467153e-01
2.5519958e-01
2.6215855e-01
2.5657692e-01
2.5051105e-01
2.3501461e-01
2.0651582e-01
1.3777700e-01
2.2537362e-02
-9.9877631e-02
-2.0128942e-01
-2.6587314e-01
-2.9310221e-01
-2.9180337e-01
-2.7527801e-01
-2.5119658e-01
-2.1383799e-01
-1.8368068e-01
-1.7379580e-01
-1.5805841e-01
-1.2284055e-01
-7.6900462e-02
-3.9806214e-02
-1.4115417e-02
2.5654549e-03
2.5382493e-03
-3.3882742e-03
-2.2562357e-02
-5.3332345e-02
-6.3234320e-02
-4.7002604e-02
-7.4498637e-03
6.2209644e-02
1.5925047e-01
2.5824448e-01
3.3286481e-01
3.7683432e-01
3.6893737e-01
3.1509795e-01
2.6503487e-01
2.3367991e-01
2.0020746e-01
1.5244360e-01
1.0477158e-01
5.8851542e-02
5.3695795e-03
-3.4728797e-02
-5.6792178e-02
-7.1925695e-02
-7.3288176e-02
-5.8668962e-02
-4.1412680e-02
-4.6222110e-02
-7.5368083e-02
-1.1299398e-01
-1.5234675e-01
-1.8400394e-01
-2.0506363e-01
-2.1381796e-01
-2.0601281e-01
-1.8317597e-01
-1.4536174e-01
-9.6503987e-02
-4.0467640e-02
1.1327504e-02
4.6708304e-02
7.3718151e-02
8.4503149e-02
7.3920520e-02
6.6454498e-02
6.9886548e-02
7.5804130e-02
7.7188705e-02
7.5386553e-02
7.0809472e-02
5.6643200e-02
3.7376784e-02
1.1858835e-02
-2.3345467e-02
-5.8844503e-02
-8.8552021e-02
-1.1054339e-01
-1.2488526e-01
-1.3242584e-01
-1.3674078e-01
-1.4248035e-01
-1.4506861e-01
-1.4377254e-01
-1.3947513e-01
-1.2564836e-01
-1.0055972e-01
-6.6759171e-02
-2.9717723e-02
6.2216297e-03
3.3271233e-02
4.3873449e-02
4.5755635e-02
3.4828486e-02
7.5099816e-03
-1.6798330e-02
-2.9922985e-02
-3.3010257e-02
-2.4904452e-02
-4.9320080e-03
2.3032014e-02
5.5797455e-02
9.0085871e-02
9.2350734e-02
5.1318402e-02
7.6278543e-03
-1.5736570e-02
-2.6448486e-02
-3.6385225e-02
-3.8243354e-02
-2.9934274e-02
-2.3353718e-02
-1.7232232e-02
-1.7239480e-02
-1.6101587e-02
6.9257575e-03
5.2905034e-02
1.1037093e-01
1.5857551e-01
1.9274050e-01
2.0897846e-01
2.0114631e-01
1.8791348e-01
1.5960094e-01
1.0684725e-01
5.5087004e-02
1.7903450e-02
-6.4911730e-03
-3.0547700e-02
-5.3962581e-02
-6.4163526e-02
-6.1865075e-02
-4.8369305e-02
-4.5998400e-02
-7.5381965e-02
-1.1170743e-01
-1.3371545e-01
-1.3891919e-01
-1.2688893e-01
-9.2728136e-02
-5.1211724e-02
-2.5965040e-02
-1.2819034e-02
-2.5517507e-02
-6.3493148e-02
-9.0444809e-02
-8.9258109e-02
-5.7988173e-02
1.0022565e-03
8.4489481e-02
1.6829711e-01
2.2492330e-01
2.5513454e-01
2.5892812e-01
2.3890546e-01
1.9808775e-01
1.4580610e-01
1.0003297e-01
6.4343528e-02
4.2718158e-02
1.6748427e-02
-3.1057901e-02
-7.7844799e-02
-1.0967882e-01
-1.2138868e-01
-1.1014434e-01
-8.0344907e-02
-3.7879810e-02
-1.8553754e-03
2.0053512e-02
2.1023658e-02
-4.4418462e-03
-3.7842696e-02
-7.8272515e-02
-1.2526553e-01
-1.5797062e-01
-1.6832360e-01
-1.6175660e-01
-1.5282658e-01
-1.4850157e-01
-1.3938352e-01
-1.1684369e-01
-8.7238288e-02
-7.3153117e-02
-7.7829486e-02
-7.9900889e-02
-7.0246580e-02
-5.4786496e-02
-3.6713653e-02
-1.3239193e-03
4.9528175e-02
9.7678906e-02
1.3447487e-01
1.4797267e-01
1.4647615e-01
1.4233040e-01
1.3453481e-01
1.1609903e-01
8.6387122e-02
6.9962902e-02
6.8727619e-02
6.6198511e-02
6.0667133e-02
5.4765887e-02
6.0059406e-02
6.5105903e-02
5.5954584e-02
4.7938823e-02
5.3322032e-02
8.5995646e-02
1.3375410e-01
1.7085629e-01
2.0032807e-01
2.0385661e-01
1.6705789e-01
1.1489987e-01
6.2619496e-02
8.3879455e-03
-4.2993135e-02
-7.2481939e-02
-7.7265703e-02
-6.8499962e-02
-5.5825379e-02
-6.9187927e-02
-1.1516154e-01
-1.6874598e-01
-2.1906307e-01
-2.6315077e-01
-3.0511282e-01
-3.4378285e-01
-3.7227907e-01
-3.9077975e-01
-3.9326864e-01
-3.7521781e-01
-3.3290440e-01
-2.6678700e-01
-1.9049591e-01
-1.1379400e-01
-3.9259886e-02
4.7491882e-02
1.4527322e-01
2.3496206e-01
3.1155067e-01
3.6352145e-01
3.8817341e-01
3.7440537e-01
3.1909843e-01
2.5126784e-01
1.9609380e-01
1.7695290e-01
1.9112568e-01
2.1755458e-01
2.4080727e-01
2.3744399e-01
2.0203378e-01
1.4503141e-01
7.9698467e-02
2.0161314e-02
-2.9229675e-02
-5.7939829e-02
-6.8733385e-02
-7.4163191e-02
-8.4137775e-02
-1.2795217e-01
-2.0124752e-01
-2.6521005e-01
-3.0546626e-01
-3.1957644e-01
-3.0364595e-01
-2.5425816e-01
-1.8879853e-01
-1.2565791e-01
-5.4866973e-02
1.8870016e-02
7.4722522e-02
1.0029122e-01
1.0395203e-01
1.1231812e-01
1.4099317e-01
1.9304619e-01
2.4808118e-01
2.8203394e-01
2.9710628e-01
2.8742579e-01
2.4712272e-01
1.8513724e-01
1.1394020e-01
4.4990483e-02
-1.5392202e-02
-5.3532604e-02
-7.1220222e-02
-8.1852147e-02
-9.2102216e-02
-1.0772507e-01
-1.1982169e-01
-1.2889889e-01
-1.3943414e-01
-1.4120195e-01
-1.2863492e-01
-1.0315135e-01
-8.7403934e-02
-9.8419187e-02
-1.3301186e-01
-1.8574043e-01
-2.3277297e-01
-2.6420294e-01
-2.8182143e-01
-2.7046750e-01
-2.2069175e-01
-1.3614579e-01
-5.3184803e-02
-3.9086074e-03
1.7908713e-02
2.1773189e-02
2.2309143e-02
1.3504676e-02
-7.2510196e-03
-3.8108743e-03
4.8260814e-02
1.4405302e-01
2.4264880e-01
3.1454485e-01
3.6443900e-01
3.8442297e-01
3.6983734e-01
3.1704593e-01
2.3731581e-01
1.6057400e-01
1.0446817e-01
8.3147683e-02
7.8380557e-02
6.9474991e-02
5.3613153e-02
2.3757560e-02
-4.0501474e-03
-2.9508270e-02
-5.6237743e-02
-7.2410063e-02
-7.7340608e-02
-6.5186595e-02
-5.6578629e-02
-7.3756755e-02
-1.2005340e-01
-1.9980184e-01
-2.8205200e-01
-3.3905158e-01
-3.6477607e-01
-3.4935017e-01
-2.9209326e-01
-2.0375450e-01
-1.1426425e-01
-3.8928417e-02
2.1237442e-02
5.9771781e-02
8.3063382e-02
7.9247340e-02
5.5625421e-02
5.8698057e-02
1.1110288e-01
1.9498696e-01
2.6442494e-01
2.9955857e-01
3.0425043e-01
2.7785940e-01
2.2883081e-01
1.5165662e-01
6.0255946e-02
-5.6890445e-03
-2.9562610e-02
-2.0963156e-02
-8.0776249e-03
2.9611932e-03
4.7518026e-03
-1.7980619e-02
-4.9589884e-02
-8.5519832e-02
-1.2084293e-01
-1.4318846e-01
-1.5048730e-01
-1.3981008e-01
-1.2181408e-01
-1.0164734e-01
-8.5804748e-02
-9.1598124e-02
-1.2348613e-01
-1.8059314e-01
-2.3919408e-01
-2.6396506e-01
-2.3920195e-01
-1.7600537e-01
-1.0013882e-01
-1.5654640e-02
6.3652929e-02
1.1679397e-01
1.4604051e-01
1.4822638e-01
1.3872782e-01
1.5294865e-01
2.1006701e-01
2.9782129e-01
3.7117301e-01
4.0268347e-01
3.8951846e-01
3.4976728e-01
3.0798669e-01
2.4775178e-01
1.6621592e-01
8.0300136e-02
-3.9813030e-03
-7.4839769e-02
-1.3882407e-01
-1.9846642e-01
-2.5790984e-01
-3.2580692e-01
-3.9283686e-01
-4.6552845e-01
-5.3332722e-01
-5.6550127e-01
-5.5313697e-01
-5.0124353e-01
-4.2087213e-01
-3.2143962e-01
-2.2075129e-01
-1.3211668e-01
-5.0902817e-02
1.5400065e-02
6.5620685e-02
1.1382645e-01
1.7662518e-01
2.5948243e-01
3.4227149e-01
4.1612890e-01
4.7499428e-01
5.1590612e-01
5.4774777e-01
5.5568473e-01
5.2771409e-01
4.7058201e-01
4.0376277e-01
3.4631288e-01
2.9411697e-01
2.5580662e-01
2.3049949e-01
2.0660519e-01
1.8457804e-01
1.3158134e-01
3.6339270e-02
-6.8878685e-02
-1.5755879e-01
-2.1804244e-01
-2.5407858e-01
-2.6086178e-01
-2.5188572e-01
-2.4442320e-01
-2.3802664e-01
-2.5805832e-01
-3.0046946e-01
-3.2445232e-01
-3.1152599e-01
-2.6729678e-01
-2.0594179e-01
-1.2941453e-01
-6.3106751e-02
-3.3653801e-02
-3.2318662e-02
-5.9343073e-02
-9.6072506e-02
-1.0965824e-01
-9.0043331e-02
-4.5639793e-02
5.0792581e-03
5.5652071e-02
8.6418542e-02
8.3787947e-02
6.1030177e-02
1.7965080e-02
-3.3874448e-02
-7.0205620e-02
-8.1474307e-02
-7.9255770e-02
-8.0937945e-02
-7.5272808e-02
-5.1477649e-02
-8.4765943e-03
3.8529059e-02
4.3524377e-02
5.1126376e-03
-2.4621361e-02
-9.9936062e-03
3.1542203e-02
7.0780034e-02
1.1669666e-01
1.4628209e-01
1.3855974e-01
1.1454164e-01
6.8254513e-02
1.1553164e-02
-2.0106006e-02
-1.3342616e-02
1.4165727e-02
3.8999054e-02
6.6083164e-02
7.7558612e-02
6.4315269e-02
4.3125704e-02
-7.4598290e-03
-8.8013916e-02
-1.6034210e-01
-1.9789778e-01
-2.0245391e-01
-1.8763606e-01
-1.5448342e-01
-1.2847216e-01
-1.2112481e-01
-1.1170269e-01
-1.1831928e-01
-1.4308145e-01
-1.4879754e-01
-1.1425971e-01
-5.4884080e-02
-1.8760183e-03
4.4122878e-02
7.6612921e-02
1.0006277e-01
1.3336829e-01
1.4717361e-01
1.3204795e-01
1.2466776e-01
1.5654553e-01
2.1916411e-01
2.7502293e-01
3.1503362e-01
3.4113965e-01
3.5879841e-01
3.7076615e-01
3.5122790e-01
2.9621103e-01
2.2936815e-01
1.7764891e-01
1.4528397e-01
1.2039199e-01
1.1394748e-01
1.0479675e-01
6.9492226e-02
1.3542217e-02
-7.4745956e-02
-1.9029648e-01
-3.0288564e-01
-3.8149542e-01
-4.2411607e-01
-4.4851236e-01
-4.5451817e-01
-4.4938105e-01
-4.3427419e-01
-4.0710761e-01
-3.8662979e-01
-3.6724449e-01
-3.2507929e-01
-2.4351931e-01
-1.3626897e-01
-2.4777408e-02
9.2677412e-02
1.8860861e-01
2.3539365e-01
2.4225883e-01
2.3212428e-01
2.2107466e-01
2.1253272e-01
2.2251150e-01
2.5363469e-01
2.9608574e-01
3.5252681e-01
4.0235202e-01
4.2282417e-01
4.1088244e-01
3.6271372e-01
2.7499739e-01
1.6130597e-01
5.9927341e-02
-2.1300767e-04
-1.5713652e-02
-1.4507752e-03
1.0795312e-02
1.2029545e-02
1.4729362e-02
1.3681589e-02
4.3242328e-04
-2.5516330e-02
-5.9324952e-02
-1.0411762e-01
-1.6147726e-01
-2.1493598e-01
-2.5737853e-01
-2.8873065e-01
-3.1061876e-01
-3.3072725e-01
-3.4771422e-01
-3.5851992e-01
-3.6088855e-01
-3.5800879e-01
-3.5282295e-01
-3.3513677e-01
-2.9751675e-01
-2.3671178e-01
-1.6645138e-01
-1.0640245e-01
-4.6907815e-02
3.0069050e-02
1.3236628e-01
2.4888935e-01
3.6640430e-01
4.7722233e-01
5.4734125e-01
5.5760240e-01
5.2599503e-01
4.6919488e-01
3.9409493e-01
3.0740502e-01
2.2449227e-01
1.4395706e-01
5.6638778e-02
-2.0997176e-02
-7.7593974e-02
-1.1294491e-01
-1.4617039e-01
-2.0040269e-01
-2.5256331e-01
-2.7284874e-01
-2.6050533e-01
-2.4153932e-01
-2.4044670e-01
-2.5117317e-01
-2.6114680e-01
-2.5713051e-01
-2.4546128e-01
-2.4622018e-01
-2.4636534e-01
-2.2325328e-01
-1.6761726e-01
-9.9193665e-02
-4.3137387e-02
1.6067743e-03
3.0619807e-02
4.2485678e-02
3.9010984e-02
2.9732235e-02
2.4252245e-02
1.7607575e-02
1.6350785e-02
1.4916305e-02
1.0375511e-02
2.0817124e-02
5.3803225e-02
1.1915045e-01
2.0079336e-01
2.5492731e-01
2.6839812e-01
2.5303281e-01
2.3570888e-01
2.2190349e-01
2.0033908e-01
1.7577275e-01
1.5426337e-01
1.6603502e-01
2.1376328e-01
2.5371377e-01
2.6272469e-01
2.3545360e-01
1.7426613e-01
8.5841647e-02
-9.8847090e-03
-8.6099517e-02
-1.3265698e-01
-1.3842141e-01
-1.1447776e-01
-9.6954915e-02
-1.0405921e-01
-1.3508445e-01
-1.6665639e-01
-1.7490625e-01
-1.5198347e-01
-1.0654049e-01
-6.8076887e-02
-4.8119822e-02
-3.7102355e-02
-2.5892163e-02
-1.5382831e-02
-1.3773266e-02
-1.3621698e-02
-8.8767715e-03
-5.1122153e-04
1.1287445e-02
2.4464367e-02
4.5243292e-02
6.3930832e-02
6.5140869e-02
5.3441579e-02
3.4802831e-02
1.2514737e-02
-1.6608385e-02
-4.6862289e-02
-6.5729197e-02
-7.4772303e-02
-7.4367964e-02
-6.9602614e-02
-6.4118651e-02
-5.0970220e-02
-3.1222818e-02
-1.1563524e-02
2.8230231e-03
1.6553103e-02
2.1010104e-02
4.6575653e-03
-9.4997118e-03
-1.0183226e-02
-2.6873988e-03
1.4058725e-02
3.3722095e-02
4.6797466e-02
4.0366360e-02
1.8203636e-02
-5.8997451e-03
-2.8886491e-02
-4.2128032e-02
-4.6480074e-02
-4.7908235e-02
-4.4844281e-02
-4.0074199e-02
-3.5275370e-02
-3.4672093e-02
-3.7531061e-02
-3.6969594e-02
-3.4116081e-02
-2.9788174e-02
-3.1955177e-02
-4.5022100e-02
-5.4711482e-02
-5.2474054e-02
-4.1608638e-02
-2.8991548e-02
-1.3501179e-02
-4.9964620e-04
2.6037482e-03
1.2603193e-02
3.5606342e-02
6.5278067e-02
1.0122465e-01
1.3284356e-01
1.3528014e-01
9.7943870e-02
5.0402687e-02
5.7106317e-03
-4.8532438e-02
-1.0018830e-01
-1.4278549e-01
-1.7711117e-01
-1.9758893e-01
-2.0989976e-01
-2.2070716e-01
-2.3067525e-01
-2.2786436e-01
-2.1125221e-01
-1.9153865e-01
-1.6079625e-01
-1.1516632e-01
-6.0020286e-02
-3.4446465e-03
5.0961959e-02
1.0766479e-01
1.6721815e-01
2.3329622e-01
2.8880599e-01
3.1995286e-01
3.4434585e-01
3.5475779e-01
3.3225998e-01
2.7337041e-01
1.8475851e-01
9.5768669e-02
3.8634519e-02
2.4002350e-02
3.2582258e-02
3.6972458e-02
3.3577183e-02
3.7849945e-02
6.5855799e-02
1.1507766e-01
1.6407856e-01
1.8386652e-01
1.6413742e-01
1.1931559e-01
5.6380896e-02
-1.1050123e-02
-6.2593101e-02
-9.6485857e-02
-1.1542772e-01
-1.2033863e-01
-1.1664049e-01
-1.1486090e-01
-1.2352160e-01
-1.3657065e-01
-1.4967216e-01
-1.6560679e-01
-1.8047756e-01
-1.9080147e-01
-1.9336607e-01
-1.8634150e-01
-1.7067688e-01
-1.4985797e-01
-1.2875848e-01
-1.0746024e-01
-9.5061105e-02
-9.4445477e-02
-9.0273254e-02
