-3.5146583e-06
4.0710255e-04
6.5682628e-04
6.3390946e-04
2.3896045e-04
-6.0753007e-04
-1.9511917e-03
-3.7787879e-03
-5.9900905e-03
-8.3796672e-03
-1.0647886e-02
-1.2452319e-02
-1.3476864e-02
-1.3496141e-02
-1.2425456e-02
-1.0346434e-02
-7.5013080e-03
-4.2539491e-03
-1.0341290e-03
1.7101109e-03
3.5387556e-03
4.0500170e-03
2.9595687e-03
2.3351894e-04
-3.7838858e-03
-8.3625272e-03
-1.2550370e-02
-1.5443086e-02
-1.6453663e-02
-1.5494894e-02
-1.3058387e-02
-1.0120324e-02
-7.7818913e-03
-6.7985014e-03
-7.2685293e-03
-8.6178163e-03
-9.8268577e-03
-9.7392598e-03
-7.3719318e-03
-2.1922963e-03
5.7035983e-03
1.5573202e-02
2.6211131e-02
3.6279431e-02
4.4648897e-02
5.0622597e-02
5.4003523e-02
5.5066015e-02
5.4472868e-02
5.3123685e-02
5.1870055e-02
5.1134788e-02
5.0643309e-02
4.9402151e-02
4.5917953e-02
3.8575604e-02
2.6090382e-02
7.9256400e-03
-1.5507847e-02
-4.2892274e-02
-7.2185381e-02
-1.0091409e-01
-1.2654880e-01
-1.4683944e-01
-1.5989005e-01
-1.6407548e-01
-1.5816253e-01
-1.4163835e-01
-1.1501436e-01
-7.9920411e-02
-3.8974295e-02
4.5932442e-03
4.7627368e-02
8.7677246e-02
1.2305772e-01
1.5230452e-01
1.7361505e-01
1.8499359e-01
1.8498998e-01
1.7337840e-01
1.5129544e-01
1.2086345e-01
8.4732460e-02
4.5703690e-02
6.4048427e-03
-3.0886712e-02
-6.4196536e-02
-9.1791721e-02
-1.1237047e-01
-1.2522131e-01
-1.3022181e-01
-1.2788167e-01
-1.1936348e-01
-1.0655979e-01
-9.2148579e-02
-7.9213106e-02
-7.0301193e-02
-6.6308896e-02
-6.5972934e-02
-6.6391404e-02
-6.4241165e-02
-5.6831555e-02
-4.2508089e-02
-2.0789588e-02
7.7214234e-03
4.1730973e-02
7.9552945e-02
1.1924792e-01
1.5872180e-01
1.9586760e-01
2.2873379e-01
2.5562339e-01
2.7499934e-01
2.8501627e-01
2.8323280e-01
2.6703417e-01
2.3441297e-01
1.8474709e-01
1.1929561e-01
4.1303312e-02
-4.4343949e-02
-1.3197521e-01
-2.1606323e-01
-2.9183907e-01
-3.5539435e-01
-4.0328972e-01
-4.3231961e-01
-4.3996400e-01
-4.2523118e-01
-3.8929236e-01
-3.3562151e-01
-2.6931558e-01
-1.9566709e-01
-1.1904673e-01
-4.2767656e-02
3.0442121e-02
9.8191271e-02
1.5865872e-01
2.1060939e-01
2.5308158e-01
2.8526168e-01
3.0659904e-01
3.1686595e-01
3.1601198e-01
3.0400351e-01
2.8073954e-01
2.4627840e-01
2.0152464e-01
1.4881335e-01
9.1980715e-02
3.5801329e-02
-1.5176111e-02
-5.7813529e-02
-9.0779950e-02
-1.1405233e-01
-1.2843633e-01
-1.3537913e-01
-1.3647042e-01
-1.3285977e-01
-1.2526221e-01
-1.1444493e-01
-1.0133214e-01
-8.6596228e-02
-7.0522498e-02
-5.3184923e-02
-3.4679744e-02
-1.5377379e-02
4.0598267e-03
2.2828859e-02
4.0042471e-02
5.4688171e-02
6.5687003e-02
7.2003074e-02
7.2808064e-02
6.8027666e-02
5.8758510e-02
4.6821787e-02
3.3902126e-02
2.1111913e-02
9.1103353e-03
-1.7110328e-03
-1.1191330e-02
-1.9371409e-02
-2.6363821e-02
-3.2179425e-02
-3.6802632e-02
-4.0410430e-02
-4.3385120e-02
-4.6148600e-02
-4.8960642e-02
-5.1823067e-02
-5.4569581e-02
-5.7008136e-02
-5.8859169e-02
-5.9544834e-02
-5.8186315e-02
-5.3837007e-02
-4.5827393e-02
-3.4143468e-02
-1.9640142e-02
-3.9188751e-03
1.1179744e-02
2.4191155e-02
3.4412016e-02
4.1994492e-02
4.7654723e-02
5.2089232e-02
5.5622996e-02
5.8317515e-02
6.0091503e-02
6.0661793e-02
5.9680364e-02
5.6998352e-02
5.2679386e-02
4.6895102e-02
3.9972054e-02
3.2458893e-02
2.4978285e-02
1.7989477e-02
1.1702495e-02
6.1015558e-03
9.2958020e-04
-4.2867775e-03
-9.9695250e-03
-1.6129013e-02
-2.2257891e-02
-2.7582463e-02
-3.1471222e-02
-3.3581507e-02
-3.3716484e-02
-3.1803290e-02
-2.8059474e-02
-2.3090005e-02
-1.7738782e-02
-1.2727678e-02
-8.3577227e-03
-4.6081009e-03
-1.5414197e-03
5.2661335e-04
1.1823339e-03
1.0007198e-04
-2.7569054e-03
-7.0223764e-03
-1.2076792e-02
-1.7359036e-02
-2.2531263e-02
-2.7373179e-02
-3.1671655e-02
-3.5150155e-02
-3.7318223e-02
-3.7490274e-02
-3.5144576e-02
-3.0248279e-02
-2.3157048e-02
-1.4363128e-02
-4.4110296e-03
6.1681518e-03
1.6925617e-02
2.7452179e-02
3.7268789e-02
4.5838769e-02
5.2747989e-02
5.7790728e-02
6.0865637e-02
6.1813619e-02
6.0381529e-02
5.6385160e-02
4.9864966e-02
4.1181981e-02
3.1066237e-02
2.0449446e-02
1.0151763e-02
6.8297245e-04
-7.7215907e-03
-1.4873289e-02
-2.0432761e-02
-2.4052100e-02
-2.5699231e-02
-2.5622385e-02
-2.4026326e-02
-2.0951893e-02
-1.6444262e-02
-1.0793266e-02
-4.6481768e-03
1.0161429e-03
5.0864210e-03
6.6008250e-03
4.9128708e-03
-2.0705649e-04
-8.3827401e-03
-1.8590192e-02
-2.9403337e-02
-3.9332264e-02
-4.7108061e-02
-5.1868809e-02
-5.3158215e-02
-5.0785945e-02
-4.4675981e-02
-3.4885472e-02
-2.1985932e-02
-7.3689999e-03
7.1306562e-03
2.0026044e-02
3.0616516e-02
3.8772008e-02
4.4523484e-02
4.7926254e-02
4.9123157e-02
4.8447919e-02
4.6404098e-02
4.3377154e-02
3.9379663e-02
3.4211514e-02
2.7782793e-02
2.0191425e-02
1.1688689e-02
2.6535430e-03
-6.4587639e-03
-1.5175685e-02
-2.3217831e-02
-3.0698380e-02
-3.8009136e-02
-4.5500630e-02
-5.3169836e-02
-6.0515523e-02
-6.6641996e-02
-7.0615718e-02
-7.1810279e-02
-6.9930760e-02
-6.4938989e-02
-5.7088747e-02
-4.6910390e-02
-3.4973699e-02
-2.1604867e-02
-6.9718903e-03
8.5754400e-03
2.4383922e-02
3.9750914e-02
5.4257508e-02
6.7806554e-02
8.0460284e-02
9.2259269e-02
1.0307714e-01
1.1262641e-01
1.2050388e-01
1.2613605e-01
1.2872189e-01
1.2729417e-01
1.2091379e-01
1.0897595e-01
9.1548258e-02
6.9387006e-02
4.3582702e-02
1.5336793e-02
-1.4049218e-02
-4.3252290e-02
-7.1018481e-02
-9.6145510e-02
-1.1755979e-01
-1.3453170e-01
-1.4674853e-01
-1.5421727e-01
-1.5707151e-01
-1.5540721e-01
-1.4933737e-01
-1.3911344e-01
-1.2513536e-01
-1.0781217e-01
-8.7390442e-02
-6.4057939e-02
-3.8292269e-02
-1.1105491e-02
1.6046139e-02
4.1625615e-02
6.4315222e-02
8.3045737e-02
9.6983226e-02
1.0568806e-01
1.0921973e-01
1.0799827e-01
1.0261673e-01
9.3769700e-02
8.2227312e-02
6.8797652e-02
5.4301782e-02
3.9517630e-02
2.5061253e-02
1.1364273e-02
-1.1772721e-03
-1.2110272e-02
-2.1030393e-02
-2.7729094e-02
-3.2173399e-02
-3.4327819e-02
-3.4047314e-02
-3.1194928e-02
-2.5816223e-02
-1.8165021e-02
-8.7270450e-03
1.6649886e-03
1.1816021e-02
2.0369998e-02
2.6216107e-02
2.8853198e-02
2.8369384e-02
2.5091064e-02
1.9291350e-02
1.1206175e-02
1.2211185e-03
-9.9524019e-03
-2.1232865e-02
-3.1432843e-02
-3.9652347e-02
-4.5426852e-02
-4.8597922e-02
-4.9164235e-02
-4.7309009e-02
-4.3461666e-02
-3.8191441e-02
-3.1955826e-02
-2.4895383e-02
-1.6868720e-02
-7.6413435e-03
2.9464220e-03
1.4817247e-02
2.7461919e-02
3.9898356e-02
5.0966251e-02
5.9651955e-02
6.5190231e-02
6.7132377e-02
6.5400754e-02
6.0185350e-02
5.1764625e-02
4.0532035e-02
2.7205818e-02
1.2802736e-02
-1.7095132e-03
-1.5764474e-02
-2.9177598e-02
-4.1739710e-02
-5.2993056e-02
-6.2406550e-02
-6.9584301e-02
-7.4279193e-02
-7.6236020e-02
-7.5079370e-02
-7.0399588e-02
-6.1986045e-02
-5.0060655e-02
-3.5326122e-02
-1.8796348e-02
-1.5317387e-03
1.5487919e-02
3.1318598e-02
4.5130406e-02
5.6380082e-02
6.4801412e-02
7.0272796e-02
7.2766939e-02
7.2407093e-02
6.9504481e-02
6.4479526e-02
5.7716471e-02
4.9537780e-02
4.0320366e-02
3.0530950e-02
2.0606591e-02
1.0806665e-02
1.2038768e-03
-8.1964690e-03
-1.7380676e-02
-2.6264150e-02
-3.4614774e-02
-4.2070707e-02
-4.8256565e-02
-5.2897210e-02
-5.5828339e-02
-5.6972901e-02
-5.6352627e-02
-5.4102550e-02
-5.0474242e-02
-4.5754222e-02
-4.0145935e-02
-3.3681245e-02
-2.6170643e-02
-1.7334638e-02
-7.0884586e-03
4.2261599e-03
1.5829737e-02
2.6718995e-02
3.5935267e-02
4.2769238e-02
4.6780082e-02
4.7674710e-02
4.5285397e-02
3.9654976e-02
3.1144422e-02
2.0525225e-02
8.9884233e-03
-2.0113204e-03
-1.1112812e-02
-1.7413428e-02
-2.0601187e-02
-2.0838252e-02
-1.8531833e-02
-1.4156086e-02
-8.2238526e-03
-1.3847896e-03
5.5126265e-03
1.1492257e-02
1.5662117e-02
1.7585711e-02
1.7507556e-02
1.6123349e-02
1.4173371e-02
1.2272137e-02
1.0945340e-02
1.0586988e-02
1.1366276e-02
1.3249464e-02
1.6070974e-02
1.9642272e-02
2.3897074e-02
2.9061008e-02
3.5728985e-02
4.4505404e-02
5.5334132e-02
6.7089716e-02
7.7704574e-02
8.4735764e-02
8.6062036e-02
8.0339816e-02
6.7023584e-02
4.6191532e-02
1.8507108e-02
-1.4739035e-02
-5.1633640e-02
-8.9809787e-02
-1.2682413e-01
-1.6047178e-01
-1.8887923e-01
-2.1051784e-01
-2.2427821e-01
-2.2953664e-01
-2.2613961e-01
-2.1441141e-01
-1.9515410e-01
-1.6960788e-01
-1.3944822e-01
-1.0668388e-01
-7.3293385e-02
-4.0778088e-02
-1.0011638e-02
1.8651591e-02
4.5275207e-02
7.0211811e-02
9.3976405e-02
1.1715994e-01
1.4026930e-01
1.6352205e-01
1.8672941e-01
2.0928986e-01
2.3010846e-01
2.4752019e-01
2.5955016e-01
2.6445585e-01
2.6118291e-01
2.4946786e-01
2.2972640e-01
2.0290234e-01
1.7025425e-01
1.3318196e-01
9.3155941e-02
5.1876592e-02
1.1521274e-02
-2.5538561e-02
-5.7441877e-02
-8.3293823e-02
-1.0325788e-01
-1.1844532e-01
-1.3055463e-01
-1.4138991e-01
-1.5261375e-01
-1.6558162e-01
-1.8104747e-01
-1.9891580e-01
-2.1803946e-01
-2.3622382e-01
-2.5064039e-01
-2.5839851e-01
-2.5700318e-01
-2.4468407e-01
-2.2069773e-01
-1.8549883e-01
-1.4060451e-01
-8.8158570e-02
-3.0422586e-02
3.0306748e-02
9.1241148e-02
1.4876806e-01
1.9896794e-01
2.3860828e-01
2.6549223e-01
2.7816639e-01
2.7580225e-01
2.5851649e-01
2.2781073e-01
1.8655722e-01
1.3843081e-01
8.7225522e-02
3.6416557e-02
-1.0997657e-02
-5.2659496e-02
-8.7102281e-02
-1.1378861e-01
-1.3278449e-01
-1.4436461e-01
-1.4888437e-01
-1.4679704e-01
-1.3863378e-01
-1.2493929e-01
-1.0621622e-01
-8.3102380e-02
-5.6911150e-02
-3.0064297e-02
-5.5137391e-03
1.4606883e-02
2.9685188e-02
4.0348484e-02
4.7893928e-02
5.3792822e-02
5.9282849e-02
6.5077803e-02
7.1325102e-02
7.7752949e-02
8.3868333e-02
8.9165151e-02
9.3264117e-02
9.5962041e-02
9.7180953e-02
9.6810204e-02
9.4477570e-02
8.9393484e-02
8.0513757e-02
6.7005636e-02
4.8684422e-02
2.6073015e-02
2.1008482e-04
-2.7365327e-02
-5.4621002e-02
-7.9424876e-02
-1.0011532e-01
-1.1575937e-01
-1.2602545e-01
-1.3108261e-01
-1.3159853e-01
-1.2848930e-01
-1.2252650e-01
-1.1418731e-01
-1.0374083e-01
-9.1285111e-02
-7.6754257e-02
-6.0095420e-02
-4.1474909e-02
-2.1378934e-02
-6.4949321e-04
1.9564038e-02
3.7986573e-02
5.3535359e-02
6.5566223e-02
7.3883337e-02
7.8661824e-02
8.0406641e-02
7.9875018e-02
7.7913747e-02
7.5273307e-02
7.2443571e-02
6.9608864e-02
6.6755843e-02
6.3736711e-02
6.0250652e-02
5.5871146e-02
5.0195067e-02
4.3024047e-02
3.4338641e-02
2.4218878e-02
1.2900273e-02
7.9519474e-04
-1.1549602e-02
-2.3567317e-02
-3.4810100e-02
-4.4961500e-02
-5.3782556e-02
-6.1089730e-02
-6.6812616e-02
-7.1028773e-02
-7.3830459e-02
-7.5130818e-02
-7.4639135e-02
-7.2121561e-02
-6.7686817e-02
-6.1794088e-02
-5.4987019e-02
-4.7544674e-02
-3.9415249e-02
-3.0481202e-02
-2.0782751e-02
-1.0532879e-02
-7.4721579e-05
1.0139754e-02
1.9640680e-02
2.8058070e-02
3.5234903e-02
4.1302745e-02
4.6520820e-02
5.1006360e-02
5.4601603e-02
5.6930137e-02
5.7620761e-02
5.6421956e-02
5.3157560e-02
4.7792620e-02
4.0592890e-02
3.2169333e-02
2.3377049e-02
1.5169790e-02
8.3442804e-03
3.2989315e-03
6.5284346e-05
-1.5770804e-03
-2.0257528e-03
-1.7550175e-03
-1.2249119e-03
-7.9548070e-04
-6.8569174e-04
-1.0037554e-03
-1.8434625e-03
-3.2963898e-03
-5.2561198e-03
-7.2827729e-03
-8.7179927e-03
-8.9555489e-03
-7.6515889e-03
-4.7602365e-03
-4.9447538e-04
4.7729067e-03
1.0545119e-02
1.6120314e-02
2.0617527e-02
2.3177792e-02
2.3190209e-02
2.0289595e-02
1.4292077e-02
5.3485409e-03
-5.9584934e-03
-1.8715667e-02
-3.1879013e-02
-4.4433300e-02
-5.5444300e-02
-6.4211840e-02
-7.0432147e-02
-7.4162994e-02
-7.5637075e-02
-7.5035519e-02
-7.2369178e-02
-6.7477206e-02
-6.0100556e-02
-4.9954563e-02
-3.6805621e-02
-2.0668218e-02
-1.9998376e-03
1.8228225e-02
3.8649249e-02
5.7666259e-02
7.3484125e-02
8.4500351e-02
9.0021085e-02
9.0389367e-02
8.6419448e-02
7.8899322e-02
6.8549482e-02
5.6041320e-02
4.1941058e-02
2.6857074e-02
1.1597071e-02
-2.9371593e-03
-1.6007807e-02
-2.7063235e-02
-3.5561640e-02
-4.1076941e-02
-4.3531378e-02
-4.3204905e-02
-4.0605803e-02
-3.6371135e-02
-3.1185738e-02
-2.5664875e-02
-2.0369871e-02
-1.5800690e-02
-1.2145815e-02
-9.1239736e-03
-6.1077047e-03
-2.4318294e-03
2.3067585e-03
8.1679538e-03
1.4946512e-02
2.2257375e-02
2.9595722e-02
3.6455545e-02
4.2434467e-02
4.7176864e-02
5.0260419e-02
5.1170965e-02
4.9442578e-02
4.4876710e-02
3.7634476e-02
2.8166068e-02
1.7077148e-02
5.0198316e-03
-7.4046986e-03
-1.9662295e-02
-3.1223338e-02
-4.1644229e-02
-5.0683350e-02
-5.8229474e-02
-6.4105841e-02
-6.7904282e-02
-6.9034111e-02
-6.7008247e-02
-6.1766177e-02
-5.3733575e-02
-4.3626264e-02
-3.2313376e-02
-2.0721669e-02
-9.6881580e-03
1.8646151e-04
8.6643293e-03
1.5838877e-02
2.1930395e-02
2.7147049e-02
3.1726686e-02
3.5915350e-02
3.9781654e-02
4.3214432e-02
4.6098252e-02
4.8298818e-02
4.9511097e-02
4.9314037e-02
4.7437306e-02
4.3889664e-02
3.8883673e-02
3.2765107e-02
2.5994635e-02
1.9091700e-02
1.2449273e-02
6.1603088e-03
7.6395370e-05
-5.9848067e-03
-1.2106079e-02
-1.8254212e-02
-2.4285836e-02
-2.9987629e-02
-3.5157925e-02
-3.9626435e-02
-4.3230084e-02
-4.5853172e-02
-4.7484898e-02
-4.8095043e-02
-4.7450801e-02
-4.5259374e-02
-4.1459386e-02
-3.6258275e-02
-2.9999837e-02
-2.3057417e-02
-1.5764352e-02
-8.2951067e-03
-5.9316249e-04
7.4496317e-03
1.5745264e-02
2.3984620e-02
3.1808541e-02
3.8893262e-02
4.4798668e-02
4.8898930e-02
5.0644730e-02
4.9835552e-02
4.6591503e-02
4.1257641e-02
3.4401223e-02
2.6707943e-02
1.8841526e-02
1.1369889e-02
4.7025193e-03
-9.2420924e-04
-5.4645029e-03
-9.0744688e-03
-1.2025319e-02
-1.4547903e-02
-1.6705966e-02
-1.8400885e-02
-1.9471788e-02
-1.9845195e-02
-1.9656440e-02
-1.9147769e-02
-1.8460487e-02
-1.7638912e-02
-1.6807640e-02
-1.6205987e-02
-1.6021843e-02
-1.6269239e-02
-1.6774208e-02
-1.7221859e-02
-1.7273908e-02
-1.6644112e-02
-1.5067584e-02
-1.2310469e-02
-8.3131077e-03
-3.2539751e-03
2.5777470e-03
8.8922788e-03
1.5416370e-02
2.1839210e-02
2.7771805e-02
3.2849193e-02
3.6836028e-02
3.9618480e-02
4.1141610e-02
4.1333310e-02
4.0099204e-02
3.7466305e-02
3.3692139e-02
2.9036591e-02
2.3493583e-02
1.6956003e-02
9.5138849e-03
1.4712662e-03
-6.8341270e-03
-1.5156473e-02
-2.3313042e-02
-3.1108833e-02
-3.8311795e-02
-4.4669000e-02
-4.9895731e-02
-5.3662964e-02
-5.5624894e-02
-5.5467917e-02
-5.3063808e-02
-4.8575743e-02
-4.2367070e-02
-3.4975881e-02
-2.7154972e-02
-1.9687348e-02
-1.3053161e-02
-7.3189183e-03
-2.3207862e-03
2.1420802e-03
6.2098346e-03
9.9551102e-03
1.3497094e-02
1.7098893e-02
2.1080342e-02
2.5582050e-02
3.0467213e-02
3.5451499e-02
4.0177957e-02
4.4199127e-02
4.7018662e-02
4.8183524e-02
4.7386724e-02
4.4525103e-02
3.9719090e-02
3.3334414e-02
2.5941746e-02
1.8185874e-02
1.0772098e-02
4.6469817e-03
9.2157474e-04
3.7212797e-04
3.0584269e-03
8.4507926e-03
1.5836862e-02
2.4481441e-02
3.3469709e-02
4.1609528e-02
4.7545227e-02
5.0033631e-02
4.8157835e-02
4.1282269e-02
2.8967657e-02
1.1093149e-02
-1.1883386e-02
-3.8792310e-02
-6.7840615e-02
-9.6757741e-02
-1.2301122e-01
-1.4419709e-01
-1.5843068e-01
-1.6457671e-01
-1.6240887e-01
-1.5267532e-01
-1.3693098e-01
-1.1712594e-01
-9.5062974e-02
-7.1999121e-02
-4.8585876e-02
-2.5074429e-02
-1.5763498e-03
2.1779895e-02
4.4793229e-02
6.7228682e-02
8.8846638e-02
1.0926689e-01
1.2782802e-01
1.4366419e-01
1.5593992e-01
1.6401030e-01
1.6743506e-01
1.6597167e-01
1.5952075e-01
1.4802290e-01
1.3144742e-01
1.0989877e-01
8.3805054e-02
5.4091083e-02
2.2340208e-02
-9.1481693e-03
-3.7850674e-02
-6.1821600e-02
-8.0051149e-02
-9.2423265e-02
-9.9551939e-02
-1.0241994e-01
-1.0199170e-01
-9.9124722e-02
-9.4606684e-02
-8.9040014e-02
-8.2756502e-02
-7.5914418e-02
-6.8663620e-02
-6.1214566e-02
-5.3733851e-02
-4.6225738e-02
-3.8575204e-02
-3.0697445e-02
-2.2598108e-02
-1.4299607e-02
-5.7467218e-03
3.2420100e-03
1.2839907e-02
2.2966586e-02
3.3255996e-02
4.3192252e-02
5.2209048e-02
5.9757112e-02
6.5344175e-02
6.8543419e-02
6.9018080e-02
6.6578212e-02
6.1215999e-02
5.3119196e-02
4.2695400e-02
3.0554105e-02
1.7450665e-02
4.2233751e-03
-8.2976185e-03
-1.9369509e-02
-2.8400345e-02
-3.5058934e-02
-3.9372602e-02
-4.1665166e-02
-4.2349631e-02
-4.1728445e-02
-3.9927421e-02
-3.7035033e-02
-3.3275940e-02
-2.8996704e-02
-2.4537984e-02
-2.0118031e-02
-1.5807946e-02
-1.1623791e-02
-7.5892791e-03
-3.6693096e-03
3.1241581e-04
4.5880627e-03
9.2501969e-03
1.4171767e-02
1.9099090e-02
2.3777556e-02
2.7937042e-02
3.1281409e-02
3.3634348e-02
3.4992872e-02
3.5392098e-02
3.4783757e-02
3.3071079e-02
3.0211858e-02
2.6249036e-02
2.1318480e-02
1.5632126e-02
9.4713011e-03
3.2745795e-03
-2.3906195e-03
-7.0583830e-03
-1.0515179e-02
-1.2729026e-02
-1.3756040e-02
-1.3764363e-02
-1.3037470e-02
-1.1932717e-02
-1.0883011e-02
-1.0353978e-02
-1.0656408e-02
-1.1776024e-02
-1.3483328e-02
-1.5558173e-02
-1.7832977e-02
-2.0129618e-02
-2.2208400e-02
-2.3784334e-02
-2.4651404e-02
-2.4822095e-02
-2.4532559e-02
-2.4074011e-02
-2.3604900e-02
-2.3093433e-02
-2.2404748e-02
-2.1388201e-02
-1.9822756e-02
-1.7368708e-02
-1.3639822e-02
-8.3587375e-03
-1.5585490e-03
6.3515648e-03
1.4757099e-02
2.3080705e-02
3.0888232e-02
3.7856657e-02
4.3708568e-02
4.8138054e-02
5.0833124e-02
5.1639980e-02
5.0659244e-02
4.8161049e-02
4.4463086e-02
3.9834166e-02
3.4403614e-02
2.8197218e-02
2.1288163e-02
1.3896114e-02
6.4174241e-03
-6.4402207e-04
-6.8488671e-03
-1.1928976e-02
-1.5803436e-02
-1.8529189e-02
-2.0168915e-02
-2.0716074e-02
-2.0155302e-02
-1.8581750e-02
-1.6274973e-02
-1.3642930e-02
-1.1102491e-02
-9.0730673e-03
-8.0397565e-03
-8.5312405e-03
-1.1074893e-02
-1.6114078e-02
-2.3793617e-02
-3.3738124e-02
-4.5021017e-02
-5.6342869e-02
-6.6176759e-02
-7.2863550e-02
-7.4931854e-02
-7.1601758e-02
-6.3092099e-02
-5.0345656e-02
-3.4450076e-02
-1.6459940e-02
2.4311369e-03
2.0809834e-02
3.7199177e-02
5.0351061e-02
5.9458226e-02
6.4267657e-02
6.5110217e-02
6.2835847e-02
5.8703561e-02
5.4155123e-02
5.0438099e-02
4.8205245e-02
4.7366826e-02
4.7294479e-02
4.7150764e-02
4.6155657e-02
4.3714341e-02
3.9549436e-02
3.3934068e-02
2.7740885e-02
2.2061788e-02
1.7535625e-02
1.3883581e-02
1.0046436e-02
4.7889912e-03
-2.7302658e-03
-1.2778507e-02
-2.5086416e-02
-3.8941834e-02
-5.3398047e-02
-6.7414981e-02
-7.9890724e-02
-8.9796695e-02
-9.6325766e-02
-9.8878762e-02
-9.7072193e-02
-9.0910995e-02
-8.0816950e-02
-6.7395620e-02
-5.1297396e-02
-3.3271227e-02
-1.4173048e-02
5.1857946e-03
2.4177724e-02
4.2321059e-02
5.9086083e-02
7.3635453e-02
8.4868798e-02
9.1908231e-02
9.4473096e-02
9.2802077e-02
8.7381982e-02
7.8798754e-02
6.7690725e-02
5.4721045e-02
4.0608767e-02
2.6075021e-02
1.1736049e-02
-1.8683136e-03
-1.4243666e-02
-2.4955344e-02
-3.3618445e-02
-3.9932832e-02
-4.3810061e-02
-4.5486315e-02
-4.5448108e-02
-4.4276230e-02
-4.2542742e-02
-4.0731158e-02
-3.9181182e-02
-3.7959848e-02
-3.6737798e-02
-3.4886996e-02
-3.1739097e-02
-2.6823927e-02
-2.0003034e-02
-1.1534958e-02
-2.0386179e-03
7.6820564e-03
1.6847411e-02
2.4812441e-02
3.1005284e-02
3.4918069e-02
3.6285401e-02
3.5220597e-02
3.2215063e-02
2.8007330e-02
2.3389971e-02
1.9031197e-02
1.5286840e-02
1.2184206e-02
9.6430167e-03
7.6425101e-03
6.1450321e-03
4.9297815e-03
3.5762764e-03
1.5941708e-03
-1.3982715e-03
-5.5758832e-03
-1.0895089e-02
-1.7044603e-02
-2.3520067e-02
-2.9796369e-02
-3.5339354e-02
-3.9549427e-02
-4.1804115e-02
-4.1637641e-02
-3.8875815e-02
-3.3583706e-02
-2.5996895e-02
-1.6504263e-02
-5.6589316e-03
5.8493643e-03
1.7298964e-02
2.8018384e-02
3.7464111e-02
4.5269868e-02
5.1225801e-02
5.5212847e-02
5.7144655e-02
5.7012871e-02
5.4853009e-02
5.0611538e-02
4.4239014e-02
3.5959829e-02
2.6399136e-02
1.6408498e-02
6.7240570e-03
-2.2633122e-03
-1.0487578e-02
-1.8063432e-02
-2.5191899e-02
-3.1983333e-02
-3.8259038e-02
-4.3623428e-02
-4.7680200e-02
-5.0197157e-02
-5.1182967e-02
-5.0839228e-02
-4.9392317e-02
-4.6924043e-02
-4.3384988e-02
-3.8711070e-02
-3.2940655e-02
-2.6294607e-02
-1.9109139e-02
-1.1777421e-02
-4.7556688e-03
1.5484709e-03
6.9521110e-03
1.1542402e-02
1.5550432e-02
1.9212860e-02
2.2685242e-02
2.6040446e-02
2.9334968e-02
3.2568038e-02
3.5681054e-02
3.8665338e-02
4.1520337e-02
4.4132961e-02
4.6283935e-02
4.7757594e-02
4.8356889e-02
4.7741533e-02
4.5337227e-02
4.0516891e-02
3.2880611e-02
2.2329275e-02
9.1048309e-03
-5.9551302e-03
-2.1395488e-02
-3.5626543e-02
-4.7412684e-02
-5.5962199e-02
-6.0839310e-02
-6.1975108e-02
-5.9649068e-02
-5.4378233e-02
-4.6839600e-02
-3.7810752e-02
-2.8058512e-02
-1.8251408e-02
-8.9821890e-03
-7.4162880e-04
6.1873324e-03
1.1692233e-02
1.5698867e-02
1.8155117e-02
1.9096198e-02
1.8612150e-02
1.6799219e-02
1.3850209e-02
1.0146975e-02
6.2397027e-03
2.6596201e-03
-3.0558243e-04
-2.5998211e-03
-4.3013214e-03
-5.5906078e-03
-6.6360269e-03
-7.4304798e-03
-7.7947078e-03
-7.5720642e-03
-6.7406388e-03
-5.3622772e-03
-3.4840471e-03
-1.0082667e-03
2.3166006e-03
6.7464383e-03
1.2391032e-02
1.9116571e-02
2.6562061e-02
3.4211869e-02
4.1333395e-02
4.6885012e-02
4.9702695e-02
4.8872197e-02
4.3940247e-02
3.4970595e-02
2.2702000e-02
8.7137094e-03
-4.9870416e-03
-1.6830290e-02
-2.6085109e-02
-3.2715227e-02
-3.7091363e-02
-3.9642370e-02
-4.0645858e-02
-4.0305191e-02
-3.8897348e-02
-3.6752121e-02
-3.4156371e-02
-3.1278372e-02
-2.8088710e-02
-2.4387722e-02
-1.9881720e-02
-1.4247168e-02
-7.2988776e-03
7.8310867e-04
9.3632070e-03
1.7585831e-02
2.4780859e-02
3.0639004e-02
3.5037435e-02
3.7751294e-02
3.8416124e-02
3.6722103e-02
3.2554909e-02
2.6068268e-02
1.7701860e-02
8.1195806e-03
-1.8866556e-03
-1.1519183e-02
-2.0037901e-02
-2.6782625e-02
-3.1331911e-02
-3.3694375e-02
-3.4205976e-02
-3.3216134e-02
-3.0992098e-02
-2.7841374e-02
-2.4140576e-02
-2.0196116e-02
-1.6058071e-02
-1.1485951e-02
-6.1641267e-03
5.5577011e-06
6.8343719e-03
1.3980419e-02
2.1006269e-02
2.7363790e-02
3.2459680e-02
3.5821887e-02
3.7210590e-02
3.6555409e-02
3.3932787e-02
2.9659051e-02
2.4301352e-02
1.8556042e-02
1.3000387e-02
7.8625347e-03
3.0684370e-03
-1.4843757e-03
-5.7129552e-03
-9.3535503e-03
-1.2127306e-02
-1.3952563e-02
-1.5009927e-02
-1.5578265e-02
-1.5935186e-02
-1.6434408e-02
-1.7490773e-02
-1.9379030e-02
-2.2016480e-02
-2.4908845e-02
-2.7303381e-02
-2.8469751e-02
-2.7955619e-02
-2.5647462e-02
-2.1621534e-02
-1.5990160e-02
-8.9183167e-03
-7.0287692e-04
8.2059591e-03
1.7245649e-02
2.5898813e-02
3.3854601e-02
4.0943149e-02
4.6876392e-02
5.1139125e-02
5.3202739e-02
5.2772390e-02
4.9880727e-02
4.4871431e-02
3.8272169e-02
3.0680380e-02
2.2714027e-02
1.4925522e-02
7.6358234e-03
7.9614139e-04
-5.8531539e-03
-1.2464530e-02
-1.9026541e-02
-2.5545011e-02
-3.2163759e-02
-3.9037498e-02
-4.6104626e-02
-5.3017782e-02
-5.9251335e-02
-6.4283270e-02
-6.7740938e-02
-6.9425670e-02
-6.9216979e-02
-6.7032978e-02
-6.2910451e-02
-5.6985280e-02
-4.9393530e-02
-4.0292189e-02
-2.9892282e-02
-1.8355605e-02
-5.7374356e-03
7.8849357e-03
2.2310764e-02
3.7178705e-02
5.1830140e-02
6.5280435e-02
7.6496534e-02
8.4698835e-02
8.9453315e-02
9.0694324e-02
8.8709161e-02
8.3973675e-02
7.6999245e-02
6.8271842e-02
5.8154857e-02
4.6887214e-02
3.4782185e-02
2.2366222e-02
1.0228669e-02
-1.2125511e-03
-1.1737629e-02
-2.1262646e-02
-2.9804298e-02
-3.7388390e-02
-4.3924544e-02
-4.9156183e-02
-5.2764548e-02
-5.4513082e-02
-5.4325331e-02
-5.2326476e-02
-4.8837325e-02
-4.4341022e-02
-3.9371760e-02
-3.4337528e-02
-2.9445012e-02
-2.4742243e-02
-2.0210131e-02
-1.5785040e-02
-1.1317784e-02
-6.6169239e-03
-1.5617676e-03
3.7618937e-03
9.0285910e-03
1.3826499e-02
1.7832984e-02
2.0863197e-02
2.2825669e-02
2.3734455e-02
2.3692770e-02
2.2749575e-02
2.0859099e-02
1.8033987e-02
1.4526878e-02
1.0775449e-02
7.0730445e-03
3.4199907e-03
-2.1810597e-04
-3.6417986e-03
-6.5226334e-03
-8.6431519e-03
-9.8395055e-03
-9.8737273e-03
-8.5947646e-03
-6.1600897e-03
-2.9643898e-03
6.7960582e-04
4.7495431e-03
9.4311028e-03
1.4848389e-02
2.0843730e-02
2.6977542e-02
3.2620600e-02
3.7064919e-02
3.9643724e-02
3.9772095e-02
3.7005963e-02
3.1140882e-02
2.2234414e-02
1.0621593e-02
-2.9175408e-03
-1.6997570e-02
-2.9921963e-02
-4.0326326e-02
-4.7565182e-02
-5.1608442e-02
-5.2732227e-02
-5.1393774e-02
-4.8185185e-02
-4.3630015e-02
-3.8055319e-02
-3.1682009e-02
-2.4759837e-02
-1.7636709e-02
-1.0763402e-02
-4.6221404e-03
3.9765923e-04
4.0678052e-03
6.3470395e-03
7.4508065e-03
7.8794020e-03
8.2751175e-03
9.1875831e-03
1.0942016e-02
1.3619172e-02
1.7065065e-02
2.0917821e-02
2.4676809e-02
2.7865285e-02
3.0214777e-02
3.1748095e-02
3.2664310e-02
3.3077529e-02
3.2918647e-02
3.2031057e-02
3.0250671e-02
2.7420646e-02
2.3345987e-02
1.7837683e-02
1.0859223e-02
2.5876985e-03
-6.5614192e-03
-1.5946631e-02
-2.4864953e-02
-3.2736211e-02
-3.9130361e-02
-4.3723314e-02
-4.6268325e-02
-4.6532615e-02
-4.4329635e-02
-3.9688247e-02
-3.2956246e-02
-2.4764830e-02
-1.5859452e-02
-6.8856572e-03
1.6817068e-03
9.4552417e-03
1.6149483e-02
2.1733617e-02
2.6339849e-02
2.9966561e-02
3.2424952e-02
3.3528425e-02
3.3266493e-02
3.1811928e-02
2.9370127e-02
2.6059473e-02
2.2018650e-02
1.7599566e-02
1.3244948e-02
9.1947498e-03
5.4406261e-03
1.8935368e-03
-1.4060020e-03
-4.2427667e-03
-6.4210515e-03
-7.9343645e-03
-8.9303173e-03
-9.5942195e-03
-1.0159681e-02
-1.0922481e-02
-1.2137749e-02
-1.4009873e-02
-1.6720317e-02
-2.0348588e-02
-2.4813509e-02
-2.9878608e-02
-3.5169239e-02
-4.0231490e-02
-4.4617228e-02
-4.7893240e-02
-4.9631958e-02
-4.9513506e-02
-4.7437083e-02
-4.3423204e-02
-3.7400281e-02
-2.9280848e-02
-1.9177340e-02
-7.2829367e-03
6.2589305e-03
2.1093494e-02
3.6376425e-02
5.0963337e-02
6.3859395e-02
7.4302296e-02
8.1548427e-02
8.4953751e-02
8.4327076e-02
8.0016576e-02
7.2691584e-02
6.3242678e-02
5.2700979e-02
4.1965797e-02
3.1615707e-02
2.1911822e-02
1.2860664e-02
4.3095901e-03
-3.8811869e-03
-1.1656095e-02
-1.8744396e-02
-2.4818826e-02
-2.9727932e-02
-3.3622868e-02
-3.6851727e-02
-3.9724694e-02
-4.2296176e-02
-4.4335641e-02
-4.5521350e-02
-4.5655843e-02
-4.4800969e-02
-4.3244518e-02
-4.1256740e-02
-3.8908785e-02
-3.6131351e-02
-3.2821873e-02
-2.8920438e-02
-2.4536640e-02
-1.9927208e-02
-1.5278381e-02
-1.0637960e-02
-6.0169059e-03
-1.4752952e-03
2.8793054e-03
7.0056205e-03
1.0929036e-02
1.4571408e-02
1.7680404e-02
1.9924251e-02
2.1042736e-02
2.0988710e-02
1.9965250e-02
1.8225752e-02
1.5896240e-02
1.3168805e-02
1.0530721e-02
8.6485896e-03
8.0865509e-03
9.1832013e-03
1.2086525e-02
1.6737744e-02
2.2825769e-02
2.9753145e-02
3.6707302e-02
4.2965466e-02
4.8137062e-02
5.2095012e-02
5.4702441e-02
5.5573020e-02
5.4145142e-02
4.9990027e-02
4.2929647e-02
3.2883974e-02
1.9819139e-02
3.8944652e-03
-1.4368751e-02
-3.3913059e-02
-5.3148700e-02
-7.0317447e-02
-8.3966750e-02
-9.3200208e-02
-9.7652409e-02
-9.7382867e-02
-9.2744758e-02
-8.4190564e-02
-7.2204777e-02
-5.7439506e-02
-4.0848506e-02
-2.3625527e-02
-6.9824799e-03
8.0835025e-03
2.0953791e-02
3.1366808e-02
3.9246274e-02
4.4574070e-02
4.7398861e-02
4.7901321e-02
4.6343436e-02
4.2987751e-02
3.8117157e-02
3.2060558e-02
2.5174744e-02
1.7786029e-02
1.0169819e-02
2.5954646e-03
-4.6612300e-03
-1.1335942e-02
-1.7173821e-02
-2.1884330e-02
-2.5098950e-02
-2.6413083e-02
-2.5523943e-02
-2.2342934e-02
-1.6967524e-02
-9.6896052e-03
-1.0609855e-03
8.2377019e-03
1.7593723e-02
2.6512300e-02
3.4593625e-02
4.1522528e-02
4.7078263e-02
5.1065646e-02
5.3204646e-02
5.3171972e-02
5.0773644e-02
4.6113639e-02
3.9694073e-02
3.2269164e-02
2.4424158e-02
1.6367336e-02
8.1346770e-03
-1.9872796e-04
-8.4912369e-03
-1.6635846e-02
-2.4619481e-02
-3.2370788e-02
-3.9663479e-02
-4.6304850e-02
-5.2330731e-02
-5.7906740e-02
-6.3076707e-02
-6.7678324e-02
-7.1431472e-02
-7.4023989e-02
-7.5104677e-02
-7.4260989e-02
-7.1074035e-02
-6.5143738e-02
-5.6129112e-02
-4.3933355e-02
-2.8960909e-02
-1.2236543e-02
4.9515173e-03
2.1657206e-02
3.7381953e-02
5.1695796e-02
6.4043633e-02
7.3895530e-02
8.0874917e-02
8.4750341e-02
8.5441675e-02
8.3100407e-02
7.8159836e-02
7.1199614e-02
6.2803446e-02
5.3576847e-02
4.4118991e-02
3.4931307e-02
2.6302529e-02
1.8170013e-02
1.0212146e-02
2.1428745e-03
-6.1481112e-03
-1.4648421e-02
-2.3254881e-02
-3.1770884e-02
-3.9887086e-02
-4.7112570e-02
-5.2846818e-02
-5.6603914e-02
-5.8161213e-02
-5.7546106e-02
-5.4925425e-02
-5.0617697e-02
-4.5168736e-02
-3.9215764e-02
-3.3269417e-02
-2.7602673e-02
-2.2256306e-02
-1.7155704e-02
-1.2246771e-02
-7.4997906e-03
-2.7975354e-03
2.0274595e-03
7.0304803e-03
1.2125073e-02
1.7163591e-02
2.2049679e-02
2.6793666e-02
3.1432012e-02
3.5945601e-02
4.0305330e-02
4.4489696e-02
4.8332894e-02
5.1434989e-02
5.3248425e-02
5.3251732e-02
5.1159338e-02
4.6934399e-02
4.0633064e-02
3.2390413e-02
2.2555801e-02
1.1767571e-02
7.9029091e-04
-9.7218284e-03
-1.9290227e-02
-2.7594556e-02
-3.4499621e-02
-4.0120333e-02
-4.4766381e-02
-4.8766290e-02
-5.2383045e-02
-5.5795707e-02
-5.9061540e-02
-6.2070038e-02
-6.4536568e-02
-6.6070137e-02
-6.6242120e-02
-6.4643648e-02
-6.0955704e-02
-5.5057915e-02
-4.7107292e-02
-3.7415665e-02
-2.6248484e-02
-1.3758553e-02
-4.0462268e-05
1.4815595e-02
3.0693646e-02
4.7340789e-02
6.4273365e-02
8.0802172e-02
9.6142252e-02
1.0957177e-01
1.2040514e-01
1.2782881e-01
1.3097828e-01
1.2919171e-01
1.2213694e-01
1.0983994e-01
9.2798784e-02
7.2070065e-02
4.9148562e-02
2.5712241e-02
3.2821505e-03
-1.7080582e-02
-3.4828939e-02
-4.9802258e-02
-6.2109335e-02
-7.2048648e-02
-8.0041652e-02
-8.6663693e-02
-9.2669823e-02
-9.8777947e-02
-1.0535554e-01
-1.1231704e-01
-1.1926170e-01
-1.2555859e-01
-1.3023997e-01
-1.3203759e-01
-1.2968304e-01
-1.2218864e-01
-1.0887954e-01
-8.9281428e-02
-6.3233796e-02
-3.1287385e-02
4.8547141e-03
4.2267446e-02
7.7597565e-02
1.0821379e-01
1.3258425e-01
1.4997363e-01
1.6027226e-01
1.6389324e-01
1.6142827e-01
1.5339764e-01
1.4036398e-01
1.2318195e-01
1.0300456e-01
8.1004339e-02
5.8199817e-02
3.5522430e-02
1.3865248e-02
-6.0030566e-03
-2.3554569e-02
-3.8554098e-02
-5.0987630e-02
-6.0867611e-02
-6.8116637e-02
-7.2634753e-02
-7.4427248e-02
-7.3742510e-02
-7.1130886e-02
-6.7328386e-02
-6.3026262e-02
-5.8651507e-02
-5.4342697e-02
-5.0111844e-02
-4.5966123e-02
-4.1864046e-02
-3.7594869e-02
-3.2766411e-02
-2.6864365e-02
-1.9381620e-02
-1.0068388e-02
9.3371024e-04
1.3149037e-02
2.5905819e-02
3.8499439e-02
5.0209967e-02
6.0088849e-02
6.6877044e-02
6.9391668e-02
6.6967749e-02
5.9555424e-02
4.7695292e-02
3.2547423e-02
1.5884217e-02
-2.4036243e-04
-1.4116879e-02
-2.4723950e-02
-3.1634503e-02
-3.4853113e-02
-3.4739174e-02
-3.1887445e-02
-2.6977911e-02
-2.0693004e-02
-1.3634998e-02
-6.3173248e-03
7.9364955e-04
7.3126898e-03
1.2891914e-02
1.7185720e-02
1.9947015e-02
2.1046484e-02
2.0442418e-02
1.8247963e-02
1.4802699e-02
1.0586740e-02
6.0315549e-03
1.4317553e-03
-3.0437042e-03
-7.2819332e-03
-1.1123281e-02
-1.4330812e-02
-1.6621265e-02
-1.7739872e-02
-1.7552304e-02
-1.6097514e-02
-1.3625668e-02
-1.0585857e-02
-7.4967385e-03
-4.7600712e-03
-2.5736448e-03
-9.7249745e-04
1.0472458e-04
7.3948757e-04
9.7560813e-04
8.6843992e-04
5.7962015e-04
3.4172405e-04
3.5408456e-04
8.3910160e-04
2.1247683e-03
4.5086365e-03
8.0573635e-03
1.2515949e-02
1.7287745e-02
2.1551534e-02
2.4574551e-02
2.5981497e-02
2.5753888e-02
2.4058461e-02
2.1105175e-02
1.7111430e-02
1.2285334e-02
6.7785234e-03
7.1158469e-04
-5.7644379e-03
-1.2477806e-02
-1.9279643e-02
-2.6049310e-02
-3.2633774e-02
-3.8773748e-02
-4.4092748e-02
-4.8217876e-02
-5.0893768e-02
-5.1899453e-02
-5.1036211e-02
-4.8251982e-02
-4.3600851e-02
-3.7180530e-02
-2.9210841e-02
-2.0052045e-02
-1.0057089e-02
5.0851207e-04
1.1296280e-02
2.1756363e-02
3.1265670e-02
3.9314428e-02
4.5620670e-02
5.0164794e-02
5.3210667e-02
5.5220444e-02
5.6615317e-02
5.7650107e-02
5.8479894e-02
5.9238160e-02
5.9968053e-02
6.0446865e-02
6.0139112e-02
5.8322045e-02
5.4238249e-02
4.7208898e-02
3.6767304e-02
2.2826100e-02
5.8321857e-03
-1.3119024e-02
-3.2457581e-02
-5.0575561e-02
-6.6095908e-02
-7.8040998e-02
-8.6068670e-02
-9.0463225e-02
-9.1779445e-02
-9.0523251e-02
-8.7068337e-02
-8.1612204e-02
-7.4204260e-02
-6.4945426e-02
-5.4090066e-02
-4.1931846e-02
-2.8693430e-02
-1.4598074e-02
-3.6379644e-05
1.4374326e-02
2.7910245e-02
3.9964951e-02
5.0187145e-02
5.8477322e-02
6.4900305e-02
6.9575682e-02
7.2626155e-02
7.4071111e-02
7.3730131e-02
7.1315098e-02
6.6566181e-02
5.9414910e-02
5.0161178e-02
3.9418583e-02
2.7872185e-02
1.6118182e-02
4.6303270e-03
-6.2644388e-03
-1.6365283e-02
-2.5530684e-02
-3.3693424e-02
-4.0849059e-02
-4.6957354e-02
-5.1940139e-02
-5.5778981e-02
-5.8500136e-02
-6.0062321e-02
-6.0383294e-02
-5.9394753e-02
-5.7007826e-02
-5.3193756e-02
-4.8099857e-02
-4.1980831e-02
-3.5065645e-02
-2.7580561e-02
-1.9815249e-02
-1.2019573e-02
-4.2769471e-03
3.4961968e-03
1.1465819e-02
1.9793424e-02
2.8594637e-02
3.7858503e-02
4.7384416e-02
5.6798220e-02
6.5524400e-02
7.2809385e-02
7.7958086e-02
8.0608183e-02
8.0718514e-02
7.8275180e-02
7.3122040e-02
6.5145963e-02
5.4513042e-02
4.1616843e-02
2.6995084e-02
1.1495086e-02
-3.7034182e-03
-1.7414641e-02
-2.8799769e-02
-3.7526911e-02
-4.3681025e-02
-4.7569879e-02
-4.9622015e-02
-5.0344713e-02
-5.0240442e-02
-4.9682877e-02
-4.8888421e-02
-4.8033653e-02
-4.7364436e-02
-4.7164805e-02
-4.7634750e-02
-4.8770973e-02
-5.0255191e-02
-5.1433340e-02
-5.1458158e-02
-4.9483314e-02
-4.4830226e-02
-3.7132280e-02
-2.6423479e-02
-1.3140257e-02
1.9041129e-03
1.7625635e-02
3.2957724e-02
4.7051523e-02
5.9245316e-02
6.9017655e-02
7.5952520e-02
7.9711654e-02
8.0062877e-02
7.6981889e-02
7.0785167e-02
6.2106660e-02
5.1703852e-02
4.0250878e-02
2.8300549e-02
1.6419647e-02
5.2243386e-03
-4.7358090e-03
-1.3129699e-02
-1.9914379e-02
-2.5207288e-02
-2.9130312e-02
-3.1818743e-02
-3.3554361e-02
-3.4795322e-02
-3.5978902e-02
-3.7284080e-02
-3.8525073e-02
-3.9288753e-02
-3.9222774e-02
-3.8154157e-02
-3.6025240e-02
-3.2876015e-02
-2.8908075e-02
-2.4453740e-02
-1.9824977e-02
-1.5149986e-02
-1.0317931e-02
-5.1779645e-03
3.0699666e-04
6.1948086e-03
1.2573118e-02
1.9321460e-02
2.6027449e-02
3.2174318e-02
3.7318122e-02
4.1168477e-02
4.3672938e-02
4.4954818e-02
4.5141535e-02
4.4313061e-02
4.2557569e-02
4.0043623e-02
3.6942955e-02
3.3268818e-02
2.8948742e-02
2.4045750e-02
1.8739132e-02
1.3061032e-02
6.8852676e-03
1.7925406e-04
-7.0069574e-03
-1.4719720e-02
-2.3035908e-02
-3.1797306e-02
-4.0494452e-02
-4.8436379e-02
-5.4982053e-02
-5.9666295e-02
-6.2185218e-02
-6.2328615e-02
-5.9965462e-02
-5.5049945e-02
-4.7727111e-02
-3.8504251e-02
-2.8245719e-02
-1.7962217e-02
-8.5550816e-03
-6.6482797e-04
5.3825493e-03
9.6264319e-03
1.2480226e-02
1.4583833e-02
1.6512526e-02
1.8591955e-02
2.0958904e-02
2.3681431e-02
2.6794275e-02
3.0234343e-02
3.3772756e-02
3.7093061e-02
3.9943943e-02
4.2176544e-02
4.3600836e-02
4.3804242e-02
4.2172883e-02
3.8179355e-02
3.1709443e-02
2.3143956e-02
1.3264874e-02
3.1158010e-03
-6.3036002e-03
-1.4335218e-02
-2.0661189e-02
-2.5209932e-02
-2.8178219e-02
-2.9946680e-02
-3.0841793e-02
-3.1035005e-02
-3.0576914e-02
-2.9420601e-02
-2.7460148e-02
-2.4573886e-02
-2.0700244e-02
-1.5947156e-02
-1.0618728e-02
-5.1134813e-03
2.1921967e-04
5.1038689e-03
9.2511910e-03
1.2314787e-02
1.3948522e-02
1.3887762e-02
1.2014603e-02
8.4660217e-03
3.6570399e-03
-1.8544757e-03
-7.4850534e-03
-1.2664203e-02
-1.6772401e-02
-1.9071082e-02
-1.8810785e-02
-1.5463147e-02
-8.9540005e-03
1.9190525e-04
1.0897647e-02
2.1813435e-02
3.1636452e-02
3.9244736e-02
4.3788200e-02
4.4814080e-02
4.2332813e-02
3.6869927e-02
2.9374505e-02
2.0894544e-02
1.2291812e-02
4.1663917e-03
-3.1065329e-03
-9.3301666e-03
-1.4472763e-02
-1.8627190e-02
-2.1856125e-02
-2.4086070e-02
-2.5222500e-02
-2.5325648e-02
-2.4660450e-02
-2.3592406e-02
-2.2386873e-02
-2.1075933e-02
-1.9508279e-02
-1.7502431e-02
-1.4937940e-02
-1.1771065e-02
-8.0699918e-03
-4.0823748e-03
-2.8056568e-04
2.7726713e-03
4.7401750e-03
5.6987516e-03
6.0298922e-03
6.1474146e-03
6.3185928e-03
6.6635291e-03
7.1629996e-03
7.6209841e-03
7.6985028e-03
7.0714147e-03
5.5946359e-03
3.3433583e-03
5.8241044e-04
-2.3489809e-03
-5.2134362e-03
-7.8918293e-03
-1.0271531e-02
-1.2211307e-02
-1.3576896e-02
-1.4243122e-02
-1.4070594e-02
-1.2926425e-02
-1.0740775e-02
-7.5677373e-03
-3.5920091e-03
9.7851201e-04
6.0474400e-03
1.1600255e-02
1.7520177e-02
2.3551770e-02
2.9445818e-02
3.5021657e-02
4.0124905e-02
4.4540070e-02
4.7903596e-02
4.9725193e-02
4.9504493e-02
4.6860485e-02
4.1585369e-02
3.3616117e-02
2.3087560e-02
1.0520219e-02
-3.1733223e-03
-1.7030913e-02
-3.0339415e-02
-4.2643961e-02
-5.3617030e-02
-6.2938134e-02
-7.0305596e-02
-7.5531596e-02
-7.8556521e-02
-7.9344846e-02
-7.7751125e-02
-7.3495434e-02
-6.6299566e-02
-5.6084381e-02
-4.3067799e-02
-2.7859008e-02
-1.1614366e-02
4.1880239e-03
1.8335281e-02
3.0172110e-02
3.9516651e-02
4.6529998e-02
5.1605651e-02
5.5156239e-02
5.7414483e-02
5.8536911e-02
5.8823686e-02
5.8706563e-02
5.8566083e-02
5.8573294e-02
5.8616167e-02
5.8345163e-02
5.7343526e-02
5.5222795e-02
5.1589416e-02
4.6093978e-02
3.8519675e-02
2.8782931e-02
1.6946561e-02
3.3044826e-03
-1.1517683e-02
-2.6544596e-02
-4.0643323e-02
-5.2858333e-02
-6.2609960e-02
-6.9699561e-02
-7.4210025e-02
-7.6297120e-02
-7.6074290e-02
-7.3706608e-02
-6.9478741e-02
-6.3741813e-02
-5.6844951e-02
-4.9148248e-02
-4.1065737e-02
-3.2980549e-02
-2.5077503e-02
-1.7299626e-02
-9.4819832e-03
-1.4829466e-03
6.7020687e-03
1.4769806e-02
2.2129692e-02
2.8176533e-02
3.2568450e-02
3.5414037e-02
3.7292811e-02
3.8947576e-02
4.0786228e-02
4.2709393e-02
4.4371415e-02
4.5407764e-02
4.5407979e-02
4.3880207e-02
4.0472905e-02
3.5270624e-02
2.8780779e-02
2.1654992e-02
1.4453639e-02
7.6192721e-03
1.5719530e-03
-3.2615077e-03
-6.5765603e-03
-8.4022874e-03
-9.1263913e-03
-9.2562888e-03
-9.1892539e-03
-9.2153759e-03
-9.6160844e-03
-1.0588224e-02
-1.2112349e-02
-1.3964658e-02
-1.5852566e-02
-1.7614146e-02
-1.9232611e-02
-2.0593621e-02
-2.1336031e-02
-2.0986390e-02
-1.9201966e-02
-1.5898717e-02
-1.1278082e-02
-5.8293763e-03
-2.2525032e-04
4.8627951e-03
8.8896828e-03
1.1481248e-02
1.2420426e-02
1.1581765e-02
8.9053020e-03
4.5269710e-03
-1.0803205e-03
-7.1437744e-03
-1.2733811e-02
-1.6951126e-02
-1.9126903e-02
-1.8970549e-02
-1.6614190e-02
-1.2521802e-02
-7.3572413e-03
-1.8657548e-03
3.2725383e-03
7.5849894e-03
1.0875555e-02
1.3128760e-02
1.4320592e-02
1.4396765e-02
1.3424506e-02
1.1676837e-02
9.5423778e-03
7.3462168e-03
5.2534533e-03
3.3531870e-03
1.7568032e-03
5.4955744e-04
-2.9819100e-04
-9.3103764e-04
-1.4867821e-03
-1.9971909e-03
-2.4518272e-03
-2.8995588e-03
-3.5373169e-03
-4.7268153e-03
-6.8208816e-03
-9.9986276e-03
-1.4214773e-02
-1.9155400e-02
-2.4230376e-02
-2.8655072e-02
-3.1650479e-02
-3.2642568e-02
-3.1264173e-02
-2.7253055e-02
-2.0472595e-02
-1.1047765e-02
5.5979628e-04
1.3607922e-02
2.7262068e-02
4.0798899e-02
5.3618492e-02
6.5163136e-02
7.4905546e-02
8.2338708e-02
8.6929424e-02
8.8093686e-02
8.5299904e-02
7.8289265e-02
6.7181241e-02
5.2357605e-02
3.4312250e-02
1.3646389e-02
-8.8133750e-03
-3.1926008e-02
-5.4262198e-02
-7.4137132e-02
-8.9688486e-02
-9.9254666e-02
-1.0190718e-01
-9.7711278e-02
-8.7664292e-02
-7.3539277e-02
-5.7664832e-02
-4.2459261e-02
-2.9831703e-02
-2.0807550e-02
-1.5433648e-02
-1.2910906e-02
-1.1967146e-02
-1.1300212e-02
-9.8944249e-03
-7.1807548e-03
-3.0974761e-03
1.9677865e-03
7.3963756e-03
1.2607894e-02
1.7207295e-02
2.0919558e-02
2.3475387e-02
2.4653200e-02
2.4392496e-02
2.2912503e-02
2.0809758e-02
1.8979498e-02
1.8387387e-02
1.9861388e-02
2.3879946e-02
3.0297027e-02
3.8225716e-02
4.6231348e-02
5.2696731e-02
5.6298056e-02
5.6455114e-02
5.3437204e-02
4.8038720e-02
4.1135678e-02
3.3440179e-02
2.5341125e-02
1.6733102e-02
7.0996255e-03
-4.0794952e-03
-1.6919562e-02
-3.1004028e-02
-4.5534832e-02
-5.9534990e-02
-7.1904969e-02
-8.1448539e-02
-8.7057685e-02
-8.7949430e-02
-8.3816637e-02
-7.4822082e-02
-6.1464378e-02
-4.4572162e-02
-2.5378050e-02
-5.3791665e-03
1.3902218e-02
3.0991063e-02
4.4437323e-02
5.2980582e-02
5.5918800e-02
5.3422488e-02
4.6565861e-02
3.6966855e-02
2.6203015e-02
1.5378424e-02
5.0847806e-03
-4.3775814e-03
-1.2809733e-02
-1.9948850e-02
-2.5282664e-02
-2.7993415e-02
-2.7126617e-02
-2.1952708e-02
-1.2342285e-02
1.0539165e-03
1.6902488e-02
3.3463697e-02
4.8851848e-02
6.1287070e-02
6.9411073e-02
7.2524829e-02
7.0563095e-02
6.3845531e-02
5.2875820e-02
3.8285745e-02
2.0831757e-02
1.4458229e-03
-1.8687128e-02
-3.8118070e-02
-5.5332304e-02
-6.9107014e-02
-7.8732588e-02
-8.4018923e-02
-8.5163980e-02
-8.2581222e-02
-7.6791598e-02
-6.8382564e-02
-5.7979237e-02
-4.6170915e-02
-3.3462671e-02
-2.0307455e-02
-7.1411177e-03
5.6310162e-03
1.7694125e-02
2.8834595e-02
3.8841573e-02
4.7389035e-02
5.4006136e-02
5.8179755e-02
5.9524912e-02
5.7961270e-02
5.3833476e-02
4.7806099e-02
4.0568090e-02
3.2673705e-02
2.4637311e-02
1.7010015e-02
1.0262989e-02
4.6518835e-03
1.9607574e-04
-3.3044714e-03
-6.2197211e-03
-8.9246748e-03
-1.1657928e-02
-1.4551108e-02
-1.7656212e-02
-2.0893347e-02
-2.4044026e-02
-2.6826936e-02
-2.9031615e-02
-3.0572799e-02
-3.1403593e-02
-3.1436599e-02
-3.0527234e-02
-2.8493018e-02
-2.5155281e-02
-2.0384408e-02
-1.4166657e-02
-6.6987208e-03
1.5836940e-03
1.0148212e-02
1.8512931e-02
2.6229785e-02
3.2847807e-02
3.7963439e-02
4.1292031e-02
4.2692687e-02
4.2166218e-02
3.9838094e-02
3.5902339e-02
3.0580140e-02
2.4092848e-02
1.6638232e-02
8.4355989e-03
-2.0873872e-04
-8.9178539e-03
-1.7322712e-02
-2.5085651e-02
-3.1862099e-02
-3.7313719e-02
-4.1162107e-02
-4.3246322e-02
-4.3584692e-02
-4.2392976e-02
-4.0016236e-02
-3.6780953e-02
-3.2939119e-02
-2.8760466e-02
-2.4544388e-02
-2.0522282e-02
-1.6816391e-02
-1.3468951e-02
-1.0419346e-02
-7.4080681e-03
-4.0147096e-03
1.2972438e-04
5.2102533e-03
1.1262069e-02
1.8234570e-02
2.5982366e-02
3.4214947e-02
4.2499408e-02
5.0322248e-02
5.7137110e-02
6.2392334e-02
6.5592001e-02
6.6373149e-02
6.4630436e-02
6.0682061e-02
5.5192533e-02
4.8796341e-02
4.1817095e-02
3.4273606e-02
2.6008451e-02
1.6873231e-02
6.9286082e-03
-3.5739976e-03
-1.4329312e-02
-2.4967853e-02
-3.5074831e-02
-4.4326916e-02
-5.2565905e-02
-5.9763621e-02
-6.5899494e-02
-7.0821910e-02
-7.4237166e-02
-7.5832213e-02
-7.5356733e-02
-7.2616038e-02
-6.7489030e-02
-5.9989759e-02
-5.0371483e-02
-3.9312157e-02
-2.8001987e-02
-1.7772798e-02
-9.4912892e-03
-3.4141522e-03
5.7730157e-04
2.8532587e-03
3.9753426e-03
4.5926748e-03
5.3763321e-03
6.9974351e-03
1.0043697e-02
1.4892866e-02
2.1684045e-02
3.0328715e-02
4.0478568e-02
5.1518799e-02
6.2670763e-02
7.3147065e-02
8.2173379e-02
8.8949312e-02
9.2754639e-02
9.3115233e-02
8.9839215e-02
8.2958847e-02
7.2782151e-02
6.0031222e-02
4.5776532e-02
3.1127896e-02
1.6948951e-02
3.7218911e-03
-8.4479706e-03
-1.9668644e-02
-3.0113701e-02
-4.0091335e-02
-5.0073614e-02
-6.0459106e-02
-7.1372397e-02
-8.2661926e-02
-9.3843819e-02
-1.0399970e-01
-1.1191982e-01
-1.1640110e-01
-1.1641827e-01
-1.1125569e-01
-1.0071401e-01
-8.5250215e-02
-6.5844945e-02
-4.3616372e-02
-1.9592745e-02
5.1618411e-03
2.9379266e-02
5.1635064e-02
7.0537160e-02
8.4841230e-02
9.3532344e-02
9.6058072e-02
9.2622249e-02
8.4338669e-02
7.3127027e-02
6.1292975e-02
5.0901109e-02
4.3214818e-02
3.8478288e-02
3.6126428e-02
3.5224323e-02
3.4767018e-02
3.3760698e-02
3.1350426e-02
2.7021314e-02
2.0694095e-02
1.2622357e-02
3.1613997e-03
-7.3880906e-03
-1.8804985e-02
-3.0868566e-02
-4.3188070e-02
-5.5033661e-02
-6.5294501e-02
-7.2607598e-02
-7.5594233e-02
-7.3206019e-02
-6.5105573e-02
-5.1899084e-02
-3.5163120e-02
-1.7212387e-02
-6.3794153e-04
1.2254406e-02
1.9957169e-02
2.1998048e-02
1.8870117e-02
1.1810149e-02
2.4877864e-03
-7.3999622e-03
-1.6516230e-02
-2.4001942e-02
-2.9349359e-02
-3.2275844e-02
-3.2619257e-02
-3.0243132e-02
-2.5061564e-02
-1.7258338e-02
-7.5046445e-03
3.1550611e-03
1.3648591e-02
2.3103794e-02
3.0895668e-02
3.6692305e-02
4.0536045e-02
4.2770946e-02
4.3820916e-02
4.4030872e-02
4.3653202e-02
4.2933225e-02
4.2238490e-02
4.2096198e-02
4.2999837e-02
4.5191810e-02
4.8636689e-02
5.2975523e-02
5.7334606e-02
6.0299085e-02
6.0310230e-02
5.6163954e-02
4.7249209e-02
3.3612991e-02
1.5905368e-02
-4.7469923e-03
-2.6868564e-02
-4.8842774e-02
-6.9157516e-02
-8.6606766e-02
-1.0039609e-01
-1.1014412e-01
-1.1583672e-01
-1.1770828e-01
-1.1608916e-01
-1.1122781e-01
-1.0308885e-01
-9.1340215e-02
-7.5630748e-02
-5.6004769e-02
-3.3189302e-02
-8.6074224e-03
1.5771705e-02
3.7679281e-02
5.4928930e-02
6.5875544e-02
6.9808788e-02
6.7159646e-02
5.9387452e-02
4.8553135e-02
3.6870504e-02
2.6344861e-02
1.8479774e-02
1.4169476e-02
1.3660538e-02
1.6515170e-02
2.1716985e-02
2.7943185e-02
3.3930131e-02
3.8709417e-02
4.1639560e-02
4.2421965e-02
4.1120796e-02
3.8109835e-02
3.3968519e-02
2.9361896e-02
2.4963398e-02
2.1449840e-02
1.9392889e-02
1.8950891e-02
1.9613389e-02
2.0199802e-02
1.9123884e-02
1.4889224e-02
6.6229423e-03
-5.6421239e-03
-2.1103474e-02
-3.8584995e-02
-5.6807576e-02
-7.4429275e-02
-9.0086097e-02
-1.0255995e-01
-1.1094199e-01
-1.1464894e-01
-1.1333842e-01
-1.0684932e-01
-9.5224177e-02
-7.8725987e-02
-5.7784111e-02
-3.3005554e-02
-5.3172339e-03
2.3897004e-02
5.2827353e-02
7.9491755e-02
1.0208759e-01
1.1925670e-01
1.3016026e-01
1.3444431e-01
1.3229284e-01
1.2449006e-01
1.1218296e-01
9.6440200e-02
7.8092931e-02
5.7902129e-02
3.6660291e-02
1.5124540e-02
-6.0500025e-03
-2.6277611e-02
-4.4966371e-02
-6.1514974e-02
-7.5369328e-02
-8.6062838e-02
-9.3233515e-02
-9.6674622e-02
-9.6426921e-02
-9.2807751e-02
-8.6301936e-02
-7.7411205e-02
-6.6644668e-02
-5.4528584e-02
-4.1459418e-02
-2.7650928e-02
-1.3287145e-02
1.2310283e-03
1.5066591e-02
2.7107871e-02
3.6461481e-02
4.2780369e-02
4.6267265e-02
4.7459817e-02
4.6979122e-02
4.5405591e-02
4.3214208e-02
4.0680585e-02
3.7906156e-02
3.4971797e-02
3.1940212e-02
2.8756227e-02
2.5320990e-02
2.1651295e-02
1.7874475e-02
1.4073055e-02
1.0224594e-02
6.3006021e-03
2.3458872e-03
-1.5364085e-03
-5.2254224e-03
-8.6073581e-03
-1.1655170e-02
-1.4514601e-02
-1.7412912e-02
-2.0510348e-02
-2.3884279e-02
-2.7535946e-02
-3.1333889e-02
-3.4980701e-02
-3.8049193e-02
-4.0075544e-02
-4.0690025e-02
-3.9639879e-02
-3.6675747e-02
-3.1528542e-02
-2.3986779e-02
-1.3932286e-02
-1.3948257e-03
1.3334965e-02
2.9606665e-02
4.6347254e-02
6.2062070e-02
7.4986998e-02
8.3424246e-02
8.6111525e-02
8.2393177e-02
7.2223440e-02
5.6265845e-02
3.5989594e-02
1.3433927e-02
-9.2398858e-03
-3.0109926e-02
-4.7618889e-02
-6.0499052e-02
-6.7756614e-02
-6.8818795e-02
-6.3755732e-02
-5.3402558e-02
-3.9222480e-02
-2.3056306e-02
-6.9095171e-03
7.2488121e-03
1.7725320e-02
2.3407133e-02
2.3957309e-02
1.9731973e-02
1.1569587e-02
6.7302090e-04
-1.1432629e-02
-2.3011133e-02
-3.2353982e-02
-3.8147507e-02
-3.9839905e-02
-3.7728337e-02
-3.2723021e-02
-2.6047346e-02
-1.8995664e-02
-1.2676814e-02
-7.7911424e-03
-4.5569475e-03
-2.7655361e-03
-1.9028836e-03
-1.3066259e-03
-3.5109189e-04
1.3880476e-03
4.1254103e-03
8.0372978e-03
1.3423051e-02
2.0598786e-02
2.9584351e-02
3.9923939e-02
5.0703653e-02
6.0681273e-02
6.8518895e-02
7.3055192e-02
7.3548161e-02
6.9851048e-02
6.2469803e-02
5.2352295e-02
4.0540134e-02
2.7997077e-02
1.5542795e-02
3.8326779e-03
-6.6315562e-03
-1.5554499e-02
-2.2844703e-02
-2.8542761e-02
-3.2807950e-02
-3.5947025e-02
-3.8350087e-02
-4.0308922e-02
-4.1938031e-02
-4.3252496e-02
-4.4191287e-02
-4.4546007e-02
-4.3948615e-02
-4.2032101e-02
-3.8669563e-02
-3.4053512e-02
-2.8576030e-02
-2.2742771e-02
-1.7240388e-02
-1.2932362e-02
-1.0600263e-02
-1.0581940e-02
-1.2580195e-02
-1.5750718e-02
-1.8941451e-02
-2.0960664e-02
-2.0806709e-02
-1.7803551e-02
-1.1698048e-02
-2.7140794e-03
8.5052799e-03
2.1035205e-02
3.3810875e-02
4.5740711e-02
5.5810116e-02
6.3148186e-02
6.7103884e-02
6.7390727e-02
6.4106353e-02
5.7565382e-02
4.8207072e-02
3.6655312e-02
2.3725931e-02
1.0354831e-02
-2.4584823e-03
-1.3796473e-02
-2.2986328e-02
-2.9568074e-02
-3.3235932e-02
-3.3927565e-02
-3.1878703e-02
-2.7554967e-02
-2.1663563e-02
-1.5241255e-02
-9.5391698e-03
-5.7085517e-03
-4.4981851e-03
-6.0642303e-03
-9.9792872e-03
-1.5442030e-02
-2.1533988e-02
-2.7381326e-02
-3.2251570e-02
-3.5613782e-02
-3.7061862e-02
-3.6238321e-02
-3.2936202e-02
-2.7212433e-02
-1.9366249e-02
-9.8048502e-03
1.0558093e-03
1.2709606e-02
2.4447672e-02
3.5437700e-02
4.4944083e-02
5.2435229e-02
5.7547771e-02
6.0109147e-02
6.0171805e-02
5.7950401e-02
5.3767284e-02
4.8038725e-02
4.1227504e-02
3.3757383e-02
2.5970243e-02
1.8151264e-02
1.0532643e-02
3.2798211e-03
-3.4202510e-03
-9.2751356e-03
-1.4047482e-02
-1.7737811e-02
-2.0480625e-02
-2.2402651e-02
-2.3702990e-02
-2.4776624e-02
-2.6104511e-02
-2.8004632e-02
-3.0539655e-02
-3.3586502e-02
-3.6944357e-02
-4.0379502e-02
-4.3606031e-02
-4.6325775e-02
-4.8243726e-02
-4.9011482e-02
-4.8252251e-02
-4.5681215e-02
-4.1195013e-02
-3.4864933e-02
-2.6930544e-02
-1.7765735e-02
-7.7430184e-03
2.7980941e-03
1.3452206e-02
2.3735373e-02
3.3211161e-02
4.1608971e-02
4.8770481e-02
5.4477152e-02
5.8315167e-02
5.9726198e-02
5.8249672e-02
5.3751392e-02
4.6531393e-02
3.7262085e-02
2.6788990e-02
1.5962953e-02
5.5269867e-03
-3.9738406e-03
-1.2245679e-02
-1.9234978e-02
-2.5008274e-02
-2.9575690e-02
-3.2793352e-02
-3.4490907e-02
-3.4678477e-02
-3.3513390e-02
-3.1138854e-02
-2.7617276e-02
-2.2947458e-02
-1.7137263e-02
-1.0280517e-02
-2.5607032e-03
5.8232786e-03
1.4638602e-02
2.3482285e-02
3.1764589e-02
3.8833690e-02
4.4099106e-02
4.7117699e-02
4.7750250e-02
4.6315639e-02
4.3436986e-02
3.9714938e-02
3.5485682e-02
3.0698612e-02
2.5018071e-02
1.8031516e-02
9.4183763e-03
-9.1914399e-04
-1.2718102e-02
-2.5164976e-02
-3.6923737e-02
-4.6455241e-02
-5.2365218e-02
-5.3713520e-02
-5.0307897e-02
-4.3008207e-02
-3.3796015e-02
-2.5219120e-02
-1.9446443e-02
-1.7644846e-02
-2.0048165e-02
-2.6341364e-02
-3.5853214e-02
-4.7524474e-02
-5.9871620e-02
-7.1242607e-02
-8.0244759e-02
-8.5833545e-02
-8.7022028e-02
-8.2693711e-02
-7.1879771e-02
-5.4233797e-02
-3.0248301e-02
-1.1547391e-03
3.1314430e-02
6.5066652e-02
9.7740825e-02
1.2696819e-01
1.5073365e-01
1.6766692e-01
1.7721542e-01
1.7966148e-01
1.7577681e-01
1.6629093e-01
1.5177651e-01
1.3288318e-01
1.1047029e-01
8.5556569e-02
5.9174818e-02
3.2286574e-02
5.8210703e-03
-1.9342827e-02
-4.2628497e-02
-6.3971070e-02
-8.3608177e-02
-1.0167050e-01
-1.1800249e-01
-1.3231254e-01
-1.4429893e-01
-1.5344717e-01
-1.5888311e-01
-1.5963987e-01
-1.5501852e-01
-1.4468549e-01
-1.2871512e-01
-1.0787370e-01
-8.3846044e-02
-5.8914689e-02
-3.5207276e-02
-1.4155645e-02
3.5829830e-03
1.7976397e-02
2.9346423e-02
3.8159948e-02
4.5018319e-02
5.0619047e-02
5.5588559e-02
6.0309290e-02
6.4853876e-02
6.9031342e-02
7.2483060e-02
7.4838228e-02
7.5815291e-02
7.5204245e-02
7.2865548e-02
6.8753256e-02
6.2971042e-02
5.5870878e-02
4.8050380e-02
4.0219179e-02
3.3017180e-02
2.6822913e-02
2.1675821e-02
1.7388576e-02
1.3647812e-02
1.0021425e-02
6.0150360e-03
1.1769386e-03
-4.7795936e-03
-1.1893964e-02
-1.9947677e-02
-2.8427266e-02
-3.6529962e-02
-4.3290992e-02
-4.7830401e-02
-4.9649576e-02
-4.8736560e-02
-4.5497617e-02
-4.0673425e-02
-3.5174784e-02
-2.9845912e-02
-2.5363031e-02
-2.2311781e-02
-2.1159127e-02
-2.2060102e-02
-2.4679293e-02
-2.8106922e-02
-3.1091677e-02
-3.2517155e-02
-3.1653040e-02
-2.8104137e-02
-2.1738418e-02
-1.2765413e-02
-1.7941026e-03
1.0337045e-02
2.2821770e-02
3.5010218e-02
4.6340296e-02
5.6279794e-02
6.4419221e-02
7.0549697e-02
7.4600485e-02
7.6495910e-02
7.6075104e-02
7.3098971e-02
6.7295819e-02
5.8453366e-02
4.6463713e-02
3.1351752e-02
1.3408993e-02
-6.6047279e-03
-2.7327583e-02
-4.7014757e-02
-6.4090155e-02
-7.7543479e-02
-8.6914962e-02
-9.2104195e-02
-9.3259678e-02
-9.0661160e-02
-8.4603954e-02
-7.5409839e-02
-6.3441397e-02
-4.9114539e-02
-3.2964285e-02
-1.5641232e-02
2.1537933e-03
1.9695782e-02
3.6255238e-02
5.1117673e-02
6.3543572e-02
7.2781602e-02
7.8166495e-02
7.9130001e-02
7.5208085e-02
6.6219344e-02
5.2597173e-02
3.5660796e-02
1.7397188e-02
-1.9610013e-04
-1.5585718e-02
-2.7739145e-02
-3.6007985e-02
-4.0136157e-02
-4.0348510e-02
-3.7335595e-02
-3.2009824e-02
-2.5184515e-02
-1.7497461e-02
-9.4921028e-03
-1.6282535e-03
5.7483015e-03
1.2387101e-02
1.8039965e-02
2.2393311e-02
2.5062667e-02
2.5616088e-02
2.3648793e-02
1.8856680e-02
1.1080657e-02
4.3355541e-04
-1.2376767e-02
-2.5825082e-02
-3.7994390e-02
-4.7367673e-02
-5.3179750e-02
-5.5268647e-02
-5.3837092e-02
-4.9269348e-02
-4.1945886e-02
-3.2135580e-02
-2.0095441e-02
-6.2212235e-03
8.9195086e-03
2.4613551e-02
4.0020358e-02
5.4241936e-02
6.6493266e-02
7.6209074e-02
8.2973160e-02
8.6409451e-02
8.6194941e-02
8.2223482e-02
7.4781556e-02
6.4547661e-02
5.2415765e-02
3.9294497e-02
2.5894611e-02
1.2531955e-02
-8.1742838e-04
-1.4220959e-02
-2.7491746e-02
-4.0066296e-02
-5.1201855e-02
-6.0306545e-02
-6.7104835e-02
-7.1640664e-02
-7.4201245e-02
-7.5211146e-02
-7.5113311e-02
-7.4276303e-02
-7.2918770e-02
-7.1023045e-02
-6.8369249e-02
-6.4683429e-02
-5.9714444e-02
-5.3211801e-02
-4.4923239e-02
-3.4684515e-02
-2.2560837e-02
-8.9372388e-03
5.5100635e-03
1.9884614e-02
3.3144342e-02
4.4270712e-02
5.2449092e-02
5.7178038e-02
5.8409045e-02
5.6643586e-02
5.2781550e-02
4.7758700e-02
4.2311460e-02
3.7031124e-02
3.2467157e-02
2.9125251e-02
2.7390614e-02
2.7477403e-02
2.9476636e-02
3.3355229e-02
3.8863501e-02
4.5475073e-02
5.2439317e-02
5.8955105e-02
6.4304218e-02
6.7839611e-02
6.8954276e-02
6.7195684e-02
6.2431718e-02
5.4813759e-02
4.4591998e-02
3.2008718e-02
1.7347954e-02
9.7313888e-04
-1.6806519e-02
-3.5798552e-02
-5.5813400e-02
-7.6606798e-02
-9.7886213e-02
-1.1923568e-01
-1.4000438e-01
-1.5927653e-01
-1.7582226e-01
-1.8804840e-01
-1.9421149e-01
-1.9284800e-01
-1.8306573e-01
-1.6441993e-01
-1.3661730e-01
-9.9614412e-02
-5.4170233e-02
-2.4406691e-03
5.1841175e-02
1.0389195e-01
1.4904317e-01
1.8400437e-01
2.0745595e-01
2.1974613e-01
2.2210608e-01
2.1586835e-01
2.0203599e-01
1.8125708e-01
1.5402094e-01
1.2093709e-01
8.3091331e-02
4.2396649e-02
1.6587454e-03
-3.5772644e-02
-6.6642673e-02
-8.8434776e-02
-9.9739852e-02
-1.0039729e-01
-9.1474265e-02
-7.5064455e-02
-5.3937144e-02
-3.1006224e-02
-8.7863931e-03
1.0933654e-02
2.7096531e-02
3.9000234e-02
4.5843535e-02
4.6625805e-02
4.0401467e-02
2.6595745e-02
5.2888844e-03
-2.2534505e-02
-5.4964975e-02
-8.9303148e-02
-1.2222013e-01
-1.5019944e-01
-1.7021660e-01
-1.8025306e-01
-1.7952453e-01
-1.6846155e-01
-1.4836951e-01
-1.2090114e-01
-8.7692984e-02
-5.0246890e-02
-9.9382317e-03
3.1950755e-02
7.4221760e-02
1.1563816e-01
1.5461771e-01
1.8891747e-01
2.1567999e-01
2.3201620e-01
2.3567192e-01
2.2535803e-01
2.0085965e-01
1.6317267e-01
1.1471669e-01
5.9358332e-02
2.0303489e-03
-5.1938252e-02
-9.7557576e-02
-1.3082438e-01
-1.4921480e-01
-1.5194111e-01
-1.3995814e-01
-1.1580699e-01
-8.3318387e-02
-4.7108693e-02
-1.1815907e-02
1.8684224e-02
4.1696479e-02
5.5751377e-02
6.0585814e-02
5.7249303e-02
4.8061814e-02
3.5975062e-02
2.3559971e-02
1.2385334e-02
3.0606504e-03
-4.4432379e-03
-1.0492113e-02
-1.5581306e-02
-2.0278183e-02
-2.5111301e-02
-3.0339493e-02
-3.5891900e-02
-4.1516785e-02
-4.6933009e-02
-5.1848290e-02
-5.5890422e-02
-5.8590977e-02
-5.9448205e-02
-5.8019917e-02
-5.3940526e-02
-4.6909822e-02
-3.6790873e-02
-2.3697859e-02
-8.0553998e-03
9.2306733e-03
2.6672848e-02
4.2471979e-02
5.5012877e-02
6.3166724e-02
6.6381389e-02
6.4698974e-02
5.8640229e-02
4.9063207e-02
3.7084049e-02
2.4016817e-02
1.1332070e-02
5.0390114e-04
-7.2833913e-03
-1.1352570e-02
-1.1516647e-02
-7.9441434e-03
-1.1396821e-03
7.9824304e-03
1.8142963e-02
2.7930525e-02
3.6019976e-02
4.1206729e-02
4.2381909e-02
3.8641709e-02
2.9619384e-02
1.5785193e-02
-1.7079924e-03
-2.1448482e-02
-4.1971982e-02
-6.1765278e-02
-7.9282722e-02
-9.2981910e-02
-1.0141421e-01
-1.0346732e-01
-9.8610423e-02
-8.6934352e-02
-6.9036281e-02
-4.5881560e-02
-1.8737627e-02
1.0819187e-02
4.0958541e-02
6.9779113e-02
9.5453323e-02
1.1623526e-01
1.3058111e-01
1.3742535e-01
1.3633220e-01
1.2750688e-01
1.1177257e-01
9.0594534e-02
6.6099794e-02
4.0733329e-02
1.6612753e-02
-4.8754641e-03
-2.3101849e-02
-3.8050998e-02
-5.0113028e-02
-5.9885863e-02
-6.8040312e-02
-7.5193339e-02
-8.1779126e-02
-8.7944445e-02
-9.3554909e-02
-9.8351879e-02
-1.0201628e-01
-1.0408724e-01
-1.0392732e-01
-1.0080248e-01
-9.4110793e-02
-8.3531379e-02
-6.8935289e-02
-5.0365009e-02
-2.8171510e-02
-3.1176851e-03
2.3500916e-02
4.9744881e-02
7.3366349e-02
9.2552693e-02
1.0632421e-01
1.1436972e-01
1.1676219e-01
1.1386418e-01
1.0635285e-01
9.5123072e-02
8.1137273e-02
6.5397455e-02
4.8958504e-02
3.2858532e-02
1.7953222e-02
4.7501336e-03
-6.6182891e-03
-1.6222155e-02
-2.4121012e-02
-3.0276972e-02
-3.4527980e-02
-3.6606376e-02
-3.6227616e-02
-3.3184744e-02
-2.7488716e-02
-1.9550572e-02
-1.0248458e-02
-7.5450336e-04
7.8043525e-03
1.4594546e-02
1.9136354e-02
2.1256206e-02
2.0996914e-02
1.8547241e-02
1.4181349e-02
8.1960033e-03
8.5518162e-04
-7.6286139e-03
-1.7012302e-02
-2.6927734e-02
-3.6885504e-02
-4.6346019e-02
-5.4809605e-02
-6.1913104e-02
-6.7485715e-02
-7.1438433e-02
-7.3568516e-02
-7.3503814e-02
-7.0764398e-02
-6.4897499e-02
-5.5757972e-02
-4.3758884e-02
-2.9724064e-02
-1.4439679e-02
1.5895308e-03
1.8007506e-02
3.4328503e-02
4.9870184e-02
6.3972432e-02
7.6181657e-02
8.6238567e-02
9.3946115e-02
9.9031974e-02
1.0112896e-01
9.9897244e-02
9.5172877e-02
8.7021556e-02
7.5759246e-02
6.1952956e-02
4.6279418e-02
2.9356325e-02
1.1745040e-02
-5.9214168e-03
-2.2887513e-02
-3.8380418e-02
-5.1733103e-02
-6.2453873e-02
-7.0267642e-02
-7.5118868e-02
-7.7143564e-02
-7.6622904e-02
-7.3922623e-02
-6.9404220e-02
-6.3368251e-02
-5.6085372e-02
-4.7807238e-02
-3.8736186e-02
-2.9033879e-02
-1.8907381e-02
-8.7241579e-03
1.0579223e-03
1.0095059e-02
1.8197772e-02
2.5256082e-02
3.1221293e-02
3.6127859e-02
4.0107482e-02
4.3355621e-02
4.6035360e-02
4.8216988e-02
4.9937758e-02
5.1240171e-02
5.2070124e-02
5.2183641e-02
5.1235331e-02
4.8964514e-02
4.5239095e-02
3.9987920e-02
3.3208561e-02
2.4976647e-02
1.5379879e-02
4.4963398e-03
-7.5439863e-03
-2.0510042e-02
-3.4098139e-02
-4.8005558e-02
-6.1906671e-02
-7.5275963e-02
-8.7293459e-02
-9.6975141e-02
-1.0336015e-01
-1.0565880e-01
-1.0335043e-01
-9.6210924e-02
-8.4369271e-02
-6.8471107e-02
-4.9790619e-02
-2.9957195e-02
-1.0366632e-02
8.1390316e-03
2.5127621e-02
4.0360702e-02
5.3752844e-02
6.5326065e-02
7.5069145e-02
8.2909019e-02
8.8794407e-02
9.2748209e-02
9.4857560e-02
9.5215253e-02
9.3883504e-02
9.0878834e-02
8.6162052e-02
7.9629105e-02
7.1088442e-02
6.0304519e-02
4.7089770e-02
3.1389135e-02
1.3354246e-02
-6.6056162e-03
-2.7666207e-02
-4.8436140e-02
-6.7262613e-02
-8.2838901e-02
-9.4417582e-02
-1.0161013e-01
-1.0429882e-01
-1.0267165e-01
-9.7111372e-02
-8.8044523e-02
-7.5955307e-02
-6.1488551e-02
-4.5385859e-02
-2.8311623e-02
-1.0880140e-02
6.2186061e-03
2.2290471e-02
3.6806037e-02
4.9384787e-02
5.9653844e-02
6.7236690e-02
7.1836104e-02
7.3222304e-02
7.1134007e-02
6.5348908e-02
5.5971549e-02
4.3528811e-02
2.8762754e-02
1.2450179e-02
-4.5801905e-03
-2.1325648e-02
-3.6628968e-02
-4.9376603e-02
-5.8690479e-02
-6.3988534e-02
-6.4889193e-02
-6.1200320e-02
-5.3125398e-02
-4.1404683e-02
-2.7196519e-02
-1.1850339e-02
3.2561753e-03
1.6865932e-02
2.7976630e-02
3.5877412e-02
4.0132846e-02
4.0527147e-02
3.7000514e-02
2.9680755e-02
1.9015191e-02
5.9759243e-03
-7.8475095e-03
-2.0572311e-02
-3.0595579e-02
-3.6897540e-02
-3.8996600e-02
-3.6858239e-02
-3.0867733e-02
-2.1804615e-02
-1.0695019e-02
1.4805391e-03
1.3949797e-02
2.6055619e-02
3.7145845e-02
4.6629962e-02
5.4083914e-02
5.9231878e-02
6.1857387e-02
6.1740312e-02
5.8700819e-02
5.2763827e-02
4.4244255e-02
3.3688664e-02
2.1785077e-02
9.2657640e-03
-3.1477786e-03
-1.4767901e-02
-2.5053422e-02
-3.3784368e-02
-4.1129781e-02
-4.7451966e-02
-5.2896683e-02
-5.7174130e-02
-5.9799277e-02
-6.0426143e-02
-5.8886816e-02
-5.5109705e-02
-4.9130929e-02
-4.1133555e-02
-3.1415520e-02
-2.0314290e-02
-8.2421971e-03
4.2274358e-03
1.6422564e-02
2.7715128e-02
3.7549676e-02
4.5364955e-02
5.0624862e-02
5.2984951e-02
5.2408998e-02
4.9149416e-02
4.3593372e-02
3.6143764e-02
2.7281766e-02
1.7666589e-02
8.0927107e-03
-6.7250342e-04
-8.0403662e-03
-1.3717892e-02
-1.7730329e-02
-2.0299254e-02
-2.1730845e-02
-2.2370107e-02
-2.2559734e-02
-2.2587448e-02
-2.2651506e-02
-2.2908028e-02
-2.3524568e-02
-2.4583953e-02
-2.5897857e-02
-2.6957730e-02
-2.7050017e-02
-2.5466601e-02
-2.1850531e-02
-1.6405176e-02
-9.7583908e-03
-2.8028600e-03
3.4817603e-03
8.3799958e-03
1.1660075e-02
1.3551167e-02
1.4650883e-02
1.5709769e-02
1.7251511e-02
1.9351952e-02
2.1782335e-02
2.4234830e-02
2.6432870e-02
2.8211610e-02
2.9591835e-02
3.0725343e-02
3.1659989e-02
3.2178011e-02
3.1891446e-02
3.0451135e-02
2.7718059e-02
2.3815445e-02
1.9054816e-02
1.3811330e-02
8.4213655e-03
3.0813536e-03
-2.2574212e-03
-7.8156271e-03
-1.3751742e-02
-1.9988562e-02
-2.6153634e-02
-3.1670795e-02
-3.6010742e-02
-3.8922066e-02
-4.0414863e-02
-4.0574683e-02
-3.9503302e-02
-3.7363111e-02
-3.4320780e-02
-3.0385487e-02
-2.5385056e-02
-1.9258069e-02
-1.2337521e-02
-5.2800287e-03
1.2282958e-03
6.7156596e-03
1.0971345e-02
1.3948824e-02
1.5687199e-02
1.6324155e-02
1.6111332e-02
1.5358385e-02
1.4384334e-02
1.3467582e-02
1.2765333e-02
1.2272804e-02
1.1826517e-02
1.1132827e-02
9.8022156e-03
7.4415902e-03
3.8663946e-03
-7.1716794e-04
-5.7339202e-03
-1.0445544e-02
-1.4132499e-02
-1.6150208e-02
-1.6028173e-02
-1.3624922e-02
-9.1610900e-03
-3.1296606e-03
3.7980011e-03
1.0863533e-02
1.7356176e-02
2.2702566e-02
2.6494583e-02
2.8597824e-02
2.9276257e-02
2.9073649e-02
2.8468814e-02
2.7646514e-02
2.6492047e-02
2.4675962e-02
2.1855436e-02
1.7885027e-02
1.2836012e-02
6.9120565e-03
3.4481117e-04
-6.6902426e-03
-1.4048493e-02
-2.1566407e-02
-2.9094645e-02
-3.6489699e-02
-4.3460868e-02
-4.9463394e-02
-5.3759215e-02
-5.5564724e-02
-5.4217900e-02
-4.9275360e-02
-4.0582260e-02
-2.8432585e-02
-1.3784197e-02
1.7123225e-03
1.6178373e-02
2.8196994e-02
3.7088863e-02
4.2716171e-02
4.5189779e-02
4.4677538e-02
4.1315106e-02
3.5261776e-02
2.6857091e-02
1.6701763e-02
5.6378206e-03
-5.3638317e-03
-1.5385571e-02
-2.3705556e-02
-2.9869566e-02
-3.3647672e-02
-3.4927625e-02
-3.3717518e-02
-3.0188225e-02
-2.4582275e-02
-1.7100849e-02
-7.9844069e-03
2.3153152e-03
1.3064056e-02
2.3258589e-02
3.1779219e-02
3.7715824e-02
4.0640955e-02
4.0639500e-02
3.8132240e-02
3.3621526e-02
2.7533947e-02
2.0258141e-02
1.2199059e-02
3.7645099e-03
-4.5839929e-03
-1.2328332e-02
-1.9046725e-02
-2.4545289e-02
-2.8799039e-02
-3.1761901e-02
-3.3301704e-02
-3.3301396e-02
-3.1737229e-02
-2.8666218e-02
-2.4176967e-02
-1.8402569e-02
-1.1555892e-02
-3.8932085e-03
4.3408202e-03
1.2890276e-02
2.1345446e-02
2.9079375e-02
3.5421551e-02
3.9882362e-02
4.2259108e-02
4.2611475e-02
4.1161570e-02
3.8147328e-02
3.3685403e-02
2.7768704e-02
2.0367764e-02
1.1531681e-02
1.4197039e-03
-9.6882476e-03
-2.1317005e-02
-3.2797585e-02
-4.3350429e-02
-5.2146621e-02
-5.8428310e-02
-6.1641407e-02
-6.1500208e-02
-5.8049509e-02
-5.1737156e-02
-4.3362912e-02
-3.3815795e-02
-2.3813337e-02
-1.3843463e-02
-4.2301999e-03
4.8163209e-03
1.3192992e-02
2.0847027e-02
2.7694479e-02
3.3668143e-02
3.8825293e-02
4.3261353e-02
4.6876612e-02
4.9341452e-02
5.0288816e-02
4.9486293e-02
4.6904698e-02
4.2707502e-02
3.7193343e-02
3.0681024e-02
2.3363987e-02
1.5317451e-02
6.7150054e-03
-2.0020362e-03
-1.0194243e-02
-1.7216467e-02
-2.2652027e-02
-2.6475115e-02
-2.8952911e-02
-3.0474935e-02
-3.1437695e-02
-3.2085157e-02
-3.2426301e-02
-3.2297213e-02
-3.1545446e-02
-3.0210856e-02
-2.8455166e-02
-2.6326342e-02
-2.3640861e-02
-2.0082372e-02
-1.5426638e-02
-9.7382690e-03
-3.3895064e-03
3.1051461e-03
9.2347059e-03
1.4558483e-02
1.8808558e-02
2.1987395e-02
2.4299527e-02
2.5922919e-02
2.6846952e-02
2.6899212e-02
2.5910764e-02
2.3882549e-02
2.0964149e-02
1.7329464e-02
1.3159907e-02
8.6894886e-03
4.1746384e-03
-2.0123166e-04
-4.3398515e-03
-8.1583593e-03
-1.1538798e-02
-1.4294118e-02
-1.6217416e-02
-1.7158316e-02
-1.7005406e-02
-1.5707840e-02
-1.3388020e-02
-1.0418643e-02
-7.3631820e-03
-4.8039192e-03
-3.1846789e-03
-2.7043254e-03
-3.2665891e-03
-4.5011742e-03
-5.8967067e-03
-7.0300197e-03
-7.6716180e-03
-7.6848317e-03
-6.9024452e-03
-5.1417178e-03
-2.3003908e-03
1.5948467e-03
6.3573219e-03
1.1644972e-02
1.7059872e-02
2.2270316e-02
2.7045830e-02
3.1147692e-02
3.4209293e-02
3.5770351e-02
3.5441817e-02
3.3065307e-02
2.8725325e-02
2.2673192e-02
1.5302556e-02
7.1528330e-03
-1.1503481e-03
-9.0159162e-03
-1.5989970e-02
-2.1848859e-02
-2.6626612e-02
-3.0490001e-02
-3.3574746e-02
-3.5875040e-02
-3.7283074e-02
-3.7757403e-02
-3.7346735e-02
-3.6107078e-02
-3.4099235e-02
-3.1366645e-02
-2.7897916e-02
-2.3685058e-02
-1.8771871e-02
-1.3221535e-02
-7.1335519e-03
-6.8999952e-04
5.8676377e-03
1.2250733e-02
1.8108881e-02
2.3048195e-02
2.6743979e-02
2.9110125e-02
3.0301138e-02
3.0572804e-02
3.0216557e-02
2.9576080e-02
2.9012155e-02
2.8718493e-02
2.8595870e-02
2.8379006e-02
2.7803860e-02
2.6640692e-02
2.4656261e-02
2.1592239e-02
1.7181500e-02
1.1236806e-02
3.8315422e-03
-4.6081423e-03
-1.3421009e-02
-2.1897723e-02
-2.9384230e-02
-3.5290224e-02
-3.9108376e-02
-4.0506358e-02
-3.9406473e-02
-3.5958932e-02
-3.0492131e-02
-2.3517457e-02
-1.5687606e-02
-7.7062783e-03
-2.3994496e-04
6.1643368e-03
1.1076658e-02
1.4156964e-02
1.5203304e-02
1.4242612e-02
1.1611467e-02
7.8797250e-03
3.6137277e-03
-7.5405321e-04
-4.8606636e-03
-8.3447154e-03
-1.0886233e-02
-1.2278546e-02
-1.2518242e-02
-1.1850670e-02
-1.0598585e-02
-8.9149923e-03
-6.7627217e-03
-4.1060971e-03
-1.0595758e-03
2.1490500e-03
5.3389224e-03
8.4971334e-03
1.1674491e-02
1.4758029e-02
1.7436702e-02
1.9356092e-02
2.0230888e-02
1.9860010e-02
1.8204808e-02
1.5550529e-02
1.2502441e-02
9.7451023e-03
7.7637030e-03
6.7312764e-03
6.5665230e-03
7.0066515e-03
7.6814187e-03
8.2251846e-03
8.3773247e-03
8.0205520e-03
7.1326294e-03
5.7009385e-03
3.6361435e-03
7.4329215e-04
-3.1517993e-03
-7.9762428e-03
-1.3281533e-02
-1.8418471e-02
-2.2875696e-02
-2.6368151e-02
-2.8685799e-02
-2.9634962e-02
-2.9116693e-02
-2.7172519e-02
-2.3997047e-02
-1.9968786e-02
-1.5594588e-02
-1.1304160e-02
-7.2584219e-03
-3.4242595e-03
1.9789828e-04
3.5411976e-03
6.5716169e-03
9.3028431e-03
1.1788064e-02
1.4152060e-02
1.6556802e-02
1.9061094e-02
2.1547396e-02
2.3769926e-02
2.5386822e-02
2.5974471e-02
2.5123126e-02
2.2647023e-02
1.8745437e-02
1.3922996e-02
8.7332952e-03
3.5517701e-03
-1.4468734e-03
-6.1749994e-03
-1.0554824e-02
-1.4494238e-02
-1.7916916e-02
-2.0749945e-02
-2.2859630e-02
-2.4108577e-02
-2.4463717e-02
-2.4013485e-02
-2.2872134e-02
-2.1049669e-02
-1.8434313e-02
-1.4874005e-02
-1.0308167e-02
-4.8979908e-03
9.5035426e-04
6.6968986e-03
1.1819595e-02
1.5884343e-02
1.8620026e-02
2.0006835e-02
2.0207286e-02
1.9426017e-02
1.7849712e-02
1.5674069e-02
1.3125469e-02
1.0429994e-02
7.8589356e-03
5.7566885e-03
4.3441336e-03
3.5156782e-03
2.9479630e-03
2.3543711e-03
1.5863587e-03
6.4671851e-04
-3.2520507e-04
-1.1269666e-03
-1.5631277e-03
-1.5097519e-03
-9.5489933e-04
1.6859217e-05
1.2480457e-03
2.4878551e-03
3.4002276e-03
3.6613899e-03
3.0189518e-03
1.3502167e-03
-1.2202159e-03
-4.3611322e-03
-7.7294543e-03
-1.1077180e-02
-1.4191139e-02
-1.6790241e-02
-1.8572315e-02
-1.9383385e-02
-1.9283834e-02
-1.8435879e-02
-1.6965690e-02
-1.4903600e-02
-1.2189550e-02
-8.8223691e-03
-5.0724887e-03
-1.4351656e-03
1.6854230e-03
4.1760989e-03
6.0939453e-03
7.4841570e-03
8.3666742e-03
8.8249686e-03
9.0969797e-03
9.5231670e-03
1.0367335e-02
1.1718644e-02
1.3501741e-02
1.5551740e-02
1.7661491e-02
1.9528700e-02
2.0760546e-02
2.1012191e-02
2.0089232e-02
1.7903531e-02
1.4458607e-02
9.9443502e-03
4.7432658e-03
-6.6206811e-04
-5.8011217e-03
-1.0358068e-02
-1.4248749e-02
-1.7531847e-02
-2.0251242e-02
-2.2418786e-02
-2.4096534e-02
-2.5387723e-02
-2.6348603e-02
-2.6915576e-02
-2.6938154e-02
-2.6287513e-02
-2.4897850e-02
-2.2769248e-02
-1.9959231e-02
-1.6493134e-02
-1.2304404e-02
-7.3311312e-03
-1.6249137e-03
4.6805726e-03
1.1445190e-02
1.8524495e-02
2.5704585e-02
3.2653875e-02
3.8988488e-02
4.4342341e-02
4.8310693e-02
5.0414075e-02
5.0217932e-02
4.7497176e-02
4.2315003e-02
3.5073812e-02
2.6521014e-02
1.7523594e-02
8.7111567e-03
3.5672534e-04
-7.4215061e-03
-1.4457210e-02
-2.0537474e-02
-2.5508239e-02
-2.9367014e-02
-3.2231522e-02
-3.4152596e-02
-3.4967127e-02
-3.4426414e-02
-3.2524020e-02
-2.9635632e-02
-2.6333560e-02
-2.3104995e-02
-2.0209946e-02
-1.7724735e-02
-1.5596509e-02
-1.3677644e-02
-1.1816613e-02
-9.9119754e-03
-7.9239704e-03
-5.9202228e-03
-4.1164816e-03
-2.7825323e-03
-2.0575169e-03
-1.9265676e-03
-2.3100867e-03
-3.0544507e-03
-3.8808363e-03
-4.4160094e-03
-4.2869567e-03
-3.1725330e-03
-8.2153900e-04
2.9052427e-03
8.0124530e-03
1.4346062e-02
2.1528202e-02
2.8929223e-02
3.5798150e-02
4.1501366e-02
4.5650324e-02
4.8067458e-02
4.8696863e-02
4.7535222e-02
4.4617851e-02
4.0048968e-02
3.4044965e-02
2.6944636e-02
1.9198082e-02
1.1354220e-02
3.9797630e-03
-2.5071008e-03
-7.9953914e-03
-1.2675413e-02
-1.6861594e-02
-2.0858321e-02
-2.4957474e-02
-2.9457882e-02
-3.4568340e-02
-4.0239049e-02
-4.6160585e-02
-5.1897124e-02
-5.6929634e-02
-6.0677304e-02
-6.2625116e-02
-6.2410943e-02
-5.9771993e-02
-5.4531140e-02
-4.6665204e-02
-3.6310733e-02
-2.3765715e-02
-9.6139659e-03
5.1362991e-03
1.9218272e-02
3.1583039e-02
4.1732011e-02
4.9654172e-02
5.5504794e-02
5.9364362e-02
6.1278995e-02
6.1364805e-02
5.9809274e-02
5.6826933e-02
5.2604797e-02
4.7288411e-02
4.1036284e-02
3.4059719e-02
2.6590228e-02
1.8852498e-02
1.1089133e-02
3.6074179e-03
-3.2325311e-03
-9.2079475e-03
-1.4399978e-02
-1.9034422e-02
-2.3220913e-02
-2.6939191e-02
-3.0156281e-02
-3.2842380e-02
-3.4949816e-02
-3.6416868e-02
-3.7155508e-02
-3.7074192e-02
-3.6071175e-02
-3.4017032e-02
-3.0903155e-02
-2.6967121e-02
-2.2599785e-02
-1.8201418e-02
-1.4081226e-02
-1.0406696e-02
-7.2365580e-03
-4.5744189e-03
-2.3756619e-03
-5.4042968e-04
1.0647969e-03
2.5851803e-03
4.1976789e-03
6.1676179e-03
8.8265790e-03
1.2420110e-02
1.6942255e-02
2.2010531e-02
2.6952360e-02
3.1163231e-02
3.4296880e-02
3.6133051e-02
3.6479780e-02
3.5261874e-02
3.2642295e-02
2.9031342e-02
2.4941952e-02
2.0779705e-02
1.6764777e-02
1.2996572e-02
9.5477835e-03
6.5335224e-03
4.0396454e-03
1.9984448e-03
1.8395144e-04
-1.7394707e-03
-4.1323156e-03
-7.2621265e-03
-1.1246923e-02
-1.6070619e-02
-2.1586595e-02
-2.7473043e-02
-3.3258574e-02
-3.8455826e-02
-4.2672437e-02
-4.5621965e-02
-4.7083406e-02
-4.6884088e-02
-4.4863281e-02
-4.0875194e-02
-3.4938834e-02
-2.7360942e-02
-1.8670745e-02
-9.4076629e-03
2.1241929e-05
9.2622800e-03
1.7921079e-02
2.5569876e-02
3.1774174e-02
3.6173335e-02
3.8603476e-02
3.9134923e-02
3.7994076e-02
3.5477225e-02
3.1870299e-02
2.7386481e-02
2.2263087e-02
1.6915223e-02
1.1884134e-02
7.6007609e-03
4.2460407e-03
1.8325941e-03
2.8385190e-04
-5.8717816e-04
-1.0530395e-03
-1.3682097e-03
-1.6903632e-03
-2.1096686e-03
-2.7111752e-03
-3.5628516e-03
-4.6485565e-03
-5.8556641e-03
-7.0481058e-03
-8.0932646e-03
-8.8610444e-03
-9.2837601e-03
-9.3990440e-03
-9.3202590e-03
-9.1788080e-03
-9.1226423e-03
-9.2811049e-03
-9.6010251e-03
-9.7526735e-03
-9.2614743e-03
-7.7749515e-03
-5.2392030e-03
-1.8901992e-03
1.8480931e-03
5.4995383e-03
8.6230374e-03
1.0854414e-02
1.1944576e-02
1.1740430e-02
1.0161453e-02
7.1995745e-03
2.9793800e-03
-2.1088975e-03
-7.4325757e-03
-1.2326297e-02
-1.6263813e-02
-1.8864892e-02
-1.9793323e-02
-1.8740154e-02
-1.5507853e-02
-1.0110823e-02
-2.9038377e-03
5.3143812e-03
1.3360631e-02
2.0014390e-02
2.4439467e-02
2.6319078e-02
2.5735553e-02
2.3008940e-02
1.8601127e-02
1.3003384e-02
6.6013659e-03
-2.7226148e-04
-7.1867541e-03
-1.3642267e-02
-1.9231721e-02
-2.3682254e-02
-2.6778884e-02
-2.8344390e-02
-2.8251911e-02
-2.6472221e-02
-2.3107123e-02
-1.8258255e-02
-1.1928019e-02
-4.1714659e-03
4.7138282e-03
1.4234327e-02
2.3776261e-02
3.2474594e-02
3.9303091e-02
4.3532688e-02
4.5004147e-02
4.4000911e-02
4.0935824e-02
3.6128076e-02
2.9823290e-02
2.2279037e-02
1.3765907e-02
4.6262331e-03
-4.6044193e-03
-1.3270195e-02
-2.0845521e-02
-2.7107066e-02
-3.2117089e-02
-3.6058047e-02
-3.9111245e-02
-4.1436108e-02
-4.3107493e-02
-4.4030759e-02
-4.3918452e-02
-4.2390773e-02
-3.9167721e-02
-3.4179426e-02
-2.7573659e-02
-1.9710351e-02
-1.1148894e-02
-2.5369035e-03
5.5937602e-03
1.2944445e-02
1.9433671e-02
2.5125450e-02
3.0161845e-02
3.4675230e-02
3.8681739e-02
4.2119473e-02
4.4955079e-02
4.7124720e-02
4.8398457e-02
4.8404648e-02
4.6808440e-02
4.3394424e-02
3.8015348e-02
3.0628933e-02
2.1446413e-02
1.1012587e-02
1.0434554e-04
-1.0500979e-02
-2.0243981e-02
-2.8832054e-02
-3.6097674e-02
-4.1863995e-02
-4.5922446e-02
-4.8062352e-02
-4.8126117e-02
-4.6085337e-02
-4.2085807e-02
-3.6408817e-02
-2.9446105e-02
-2.1734180e-02
-1.3930601e-02
-6.7318994e-03
-7.6140567e-04
3.5907106e-03
6.2826359e-03
7.5805122e-03
7.8995663e-03
7.6567033e-03
7.1548906e-03
6.5018455e-03
5.6585110e-03
4.6010741e-03
3.4313834e-03
2.3508777e-03
1.6190318e-03
1.5298542e-03
2.3035015e-03
3.9824211e-03
6.4285364e-03
9.3720653e-03
1.2467236e-02
1.5355347e-02
1.7758754e-02
1.9535563e-02
2.0662776e-02
2.1200290e-02
2.1246833e-02
2.0964694e-02
2.0623923e-02
2.0485005e-02
2.0608647e-02
2.0849978e-02
2.0993489e-02
2.0717728e-02
1.9467435e-02
1.6561279e-02
1.1479735e-02
4.1108985e-03
-5.1647049e-03
-1.5561517e-02
-2.6105793e-02
-3.5872899e-02
-4.4092655e-02
-5.0193619e-02
-5.3864593e-02
-5.5053693e-02
-5.3905587e-02
-5.0679537e-02
-4.5676874e-02
-3.9201774e-02
-3.1552915e-02
-2.2971441e-02
-1.3583524e-02
-3.5370470e-03
6.8449513e-03
1.7137031e-02
2.6856015e-02
3.5392379e-02
4.2127145e-02
4.6694975e-02
4.9038842e-02
4.9290559e-02
4.7712862e-02
4.4630925e-02
4.0351838e-02
3.5174604e-02
2.9437598e-02
2.3566161e-02
1.8021646e-02
1.3138232e-02
9.0340264e-03
5.6192411e-03
2.6189634e-03
-3.5709355e-04
-3.6646688e-03
-7.5023069e-03
-1.1902295e-02
-1.6779149e-02
-2.1987106e-02
-2.7338560e-02
-3.2584534e-02
-3.7412070e-02
-4.1471213e-02
-4.4434334e-02
-4.6012881e-02
-4.5934988e-02
-4.3979028e-02
-4.0041231e-02
-3.4279253e-02
-2.7262510e-02
-1.9855634e-02
-1.2907904e-02
-7.0265361e-03
-2.4247456e-03
1.1297586e-03
4.1192502e-03
7.0434140e-03
1.0322547e-02
1.4207830e-02
1.8773171e-02
2.3965104e-02
2.9567882e-02
3.5251109e-02
4.0723625e-02
4.5757139e-02
5.0034055e-02
5.3086199e-02
5.4480515e-02
5.3968851e-02
5.1406279e-02
4.6618298e-02
3.9432727e-02
2.9862285e-02
1.8317028e-02
5.7591881e-03
-6.5010915e-03
-1.7357653e-02
-2.6236832e-02
-3.3021854e-02
-3.7820746e-02
-4.0813025e-02
-4.2205443e-02
-4.2126856e-02
-4.0608112e-02
-3.7801810e-02
-3.4145338e-02
-3.0239557e-02
-2.6565745e-02
-2.3312352e-02
-2.0441779e-02
-1.7841347e-02
-1.5382094e-02
-1.2906849e-02
-1.0194180e-02
-6.9418269e-03
-2.8849082e-03
2.0273575e-03
7.5419617e-03
1.3096362e-02
1.7919640e-02
2.1190040e-02
2.2160621e-02
2.0281122e-02
1.5327991e-02
7.5063424e-03
-2.5393672e-03
-1.3844045e-02
-2.5297135e-02
-3.5746428e-02
-4.4034958e-02
-4.9113057e-02
-5.0209023e-02
-4.6905235e-02
-3.9076878e-02
-2.6818815e-02
-1.0540781e-02
8.8655773e-03
3.0077124e-02
5.1632996e-02
7.2196568e-02
9.0621026e-02
1.0596208e-01
1.1750349e-01
1.2475831e-01
1.2749402e-01
1.2571380e-01
1.1958967e-01
1.0944040e-01
9.5705784e-02
7.8881773e-02
5.9438523e-02
3.7778007e-02
1.4247414e-02
-1.0849933e-02
-3.7229632e-02
-6.4573706e-02
-9.2464627e-02
-1.2025675e-01
-1.4688874e-01
-1.7085517e-01
-1.9048756e-01
-2.0424932e-01
-2.1075118e-01
-2.0868295e-01
-1.9700443e-01
-1.7532681e-01
-1.4413047e-01
-1.0482551e-01
-5.9951191e-02
-1.3339795e-02
3.0568360e-02
6.8203507e-02
9.7724220e-02
1.1883232e-01
1.3227723e-01
1.3928785e-01
1.4106674e-01
1.3854314e-01
1.3235363e-01
1.2298946e-01
1.1098476e-01
9.7017654e-02
8.1806938e-02
6.5911549e-02
4.9770155e-02
3.3931736e-02
1.9114715e-02
6.0080550e-03
-4.9328396e-03
-1.3535552e-02
-1.9901560e-02
-2.4352130e-02
-2.7277421e-02
-2.8933428e-02
-2.9344955e-02
-2.8473711e-02
-2.6424170e-02
-2.3436895e-02
-1.9806961e-02
-1.5845500e-02
-1.1911771e-02
-8.4771878e-03
-6.0574415e-03
-5.0053675e-03
-5.3939878e-03
-7.0679976e-03
-9.6729652e-03
-1.2663981e-02
-1.5404799e-02
-1.7310974e-02
-1.8008884e-02
-1.7423421e-02
-1.5774039e-02
-1.3544194e-02
-1.1390646e-02
-1.0006128e-02
-9.9126118e-03
-1.1250169e-02
-1.3745943e-02
-1.6836634e-02
-1.9826610e-02
-2.2032974e-02
-2.2922017e-02
-2.2172403e-02
-1.9614698e-02
-1.5216072e-02
-9.1519531e-03
-1.8199866e-03
6.2496968e-03
1.4532356e-02
2.2557743e-02
2.9872562e-02
3.6044764e-02
4.0739963e-02
4.3796350e-02
4.5167575e-02
4.4816259e-02
4.2694541e-02
3.8761384e-02
3.3037513e-02
2.5698878e-02
1.7112737e-02
7.7227925e-03
-2.0118059e-03
-1.1455358e-02
-1.9836843e-02
-2.6655680e-02
-3.2003045e-02
-3.6441974e-02
-4.0518872e-02
-4.4385756e-02
-4.7737222e-02
-4.9824313e-02
-4.9509532e-02
-4.5562347e-02
-3.7172146e-02
-2.4361014e-02
-8.1060014e-03
9.8479205e-03
2.7371225e-02
4.2289494e-02
5.2677160e-02
5.7186199e-02
5.5371852e-02
4.7910549e-02
3.6486678e-02
2.3284157e-02
1.0279123e-02
-1.2857691e-03
-1.0908091e-02
-1.8508375e-02
-2.4193238e-02
-2.8157711e-02
-3.0642038e-02
-3.1878219e-02
-3.1990184e-02
-3.0951279e-02
-2.8650661e-02
-2.4940078e-02
-1.9656431e-02
-1.2701943e-02
-4.1477071e-03
5.6858119e-03
1.6287009e-02
2.7110912e-02
3.7603283e-02
4.7145580e-02
5.5050927e-02
6.0596609e-02
6.3077827e-02
6.1830135e-02
5.6282424e-02
4.6158114e-02
3.1777566e-02
1.4242270e-02
-4.7511878e-03
-2.3366272e-02
-3.9968919e-02
-5.3275845e-02
-6.2507023e-02
-6.7465278e-02
-6.8373831e-02
-6.5672359e-02
-5.9918807e-02
-5.1724990e-02
-4.1725646e-02
-3.0552323e-02
-1.8759351e-02
-6.8084348e-03
4.8011365e-03
1.5506570e-02
2.4847105e-02
3.2487866e-02
3.8126979e-02
4.1548303e-02
4.2730375e-02
4.1853916e-02
3.9246370e-02
3.5325363e-02
3.0482210e-02
2.4978138e-02
1.9031744e-02
1.2954400e-02
7.1202021e-03
1.8386017e-03
-2.7122330e-03
-6.4627423e-03
-9.4131190e-03
-1.1624705e-02
-1.3296491e-02
-1.4837015e-02
-1.6740663e-02
-1.9325542e-02
-2.2562158e-02
-2.6141379e-02
-2.9637616e-02
-3.2558999e-02
-3.4337619e-02
-3.4389645e-02
-3.2305254e-02
-2.8014510e-02
-2.1724889e-02
-1.3767750e-02
-4.6166782e-03
5.0057994e-03
1.4238307e-02
2.2331916e-02
2.8781898e-02
3.3365142e-02
3.6135685e-02
3.7336382e-02
3.7229868e-02
3.5994864e-02
3.3761413e-02
3.0605817e-02
2.6541562e-02
2.1644292e-02
1.6089964e-02
1.0001252e-02
3.3662975e-03
-3.8246595e-03
-1.1385074e-02
-1.8807144e-02
-2.5276301e-02
-2.9970840e-02
-3.2441221e-02
-3.2684729e-02
-3.0945376e-02
-2.7539329e-02
-2.2879235e-02
-1.7531791e-02
-1.2142626e-02
-7.2817794e-03
-3.2958988e-03
-3.0499803e-04
1.6839594e-03
2.7328222e-03
3.0446421e-03
3.0348223e-03
3.2334436e-03
4.0876305e-03
5.8366156e-03
8.5031540e-03
1.1980205e-02
1.6083110e-02
2.0523340e-02
2.4886657e-02
2.8643506e-02
3.1200662e-02
3.1954489e-02
3.0316094e-02
2.5806961e-02
1.8307224e-02
8.3043227e-03
-3.1038186e-03
-1.4511104e-02
-2.4659606e-02
-3.2737839e-02
-3.8350854e-02
-4.1355920e-02
-4.1805425e-02
-4.0007724e-02
-3.6499378e-02
-3.1830484e-02
-2.6390654e-02
-2.0430233e-02
-1.4166816e-02
-7.8350911e-03
-1.6434866e-03
4.2715562e-03
9.8361916e-03
1.4993214e-02
1.9679504e-02
2.3840411e-02
2.7396432e-02
3.0214477e-02
3.2144299e-02
3.3079536e-02
3.3049118e-02
3.2277919e-02
3.1059007e-02
2.9473651e-02
2.7316091e-02
2.4306451e-02
2.0299449e-02
1.5366076e-02
9.7310661e-03
3.6645703e-03
-2.5419121e-03
-8.5895383e-03
-1.4202854e-02
-1.9163848e-02
-2.3351211e-02
-2.6738368e-02
-2.9365091e-02
-3.1334801e-02
-3.2820376e-02
-3.3955193e-02
-3.4668092e-02
-3.4693523e-02
-3.3734984e-02
-3.1609963e-02
-2.8234668e-02
-2.3544550e-02
-1.7608777e-02
-1.0765390e-02
-3.5299843e-03
3.5756733e-03
1.0110881e-02
1.5757941e-02
2.0368362e-02
2.3892435e-02
2.6229561e-02
2.7229604e-02
2.6843071e-02
2.5221896e-02
2.2632351e-02
1.9277162e-02
1.5273918e-02
1.0851912e-02
6.4602057e-03
2.5695163e-03
-4.8818514e-04
-2.4578048e-03
-3.1827874e-03
-2.7138284e-03
-1.2404545e-03
1.0922295e-03
4.1531305e-03
7.5809473e-03
1.0729403e-02
1.2909217e-02
1.3663630e-02
1.2858772e-02
1.0607229e-02
7.1887327e-03
2.9661311e-03
-1.7309238e-03
-6.6585677e-03
-1.1594841e-02
-1.6258443e-02
-2.0388849e-02
-2.3894086e-02
-2.6835059e-02
-2.9260938e-02
-3.1039464e-02
-3.1804454e-02
-3.1043091e-02
-2.8295349e-02
-2.3387323e-02
-1.6509094e-02
-8.1029294e-03
1.2444727e-03
1.0738615e-02
1.9314727e-02
2.5912575e-02
2.9905499e-02
3.1254951e-02
3.0392544e-02
2.8051195e-02
2.5093639e-02
2.2279180e-02
2.0097680e-02
1.8738775e-02
1.8085541e-02
1.7814211e-02
1.7616753e-02
1.7361063e-02
1.7045536e-02
1.6584591e-02
1.5714567e-02
1.4135167e-02
1.1644451e-02
8.1202238e-03
3.4784790e-03
-2.2968476e-03
-9.1210816e-03
-1.6810962e-02
-2.5136358e-02
-3.3826131e-02
-4.2477545e-02
-5.0568616e-02
-5.7574216e-02
-6.3049847e-02
-6.6690468e-02
-6.8283772e-02
-6.7519858e-02
-6.3878617e-02
-5.6806332e-02
-4.6017421e-02
-3.1591335e-02
-1.3904761e-02
6.3374417e-03
2.8000001e-02
4.9569022e-02
6.9359281e-02
8.5755886e-02
9.7431352e-02
1.0344117e-01
1.0323513e-01
9.6743630e-02
8.4509569e-02
6.7663381e-02
4.7774046e-02
2.6783595e-02
6.7626348e-03
-1.0618872e-02
-2.4369267e-02
-3.4119063e-02
-4.0014212e-02
-4.2561368e-02
-4.2438890e-02
-4.0331107e-02
-3.6841608e-02
-3.2528346e-02
-2.7972635e-02
-2.3772232e-02
-2.0491520e-02
-1.8623440e-02
-1.8470272e-02
-1.9975942e-02
-2.2672333e-02
-2.5758054e-02
-2.8256942e-02
-2.9208947e-02
-2.7882475e-02
-2.3947320e-02
-1.7535469e-02
-9.1899831e-03
2.8366930e-04
9.9851574e-03
1.9092691e-02
2.6982492e-02
3.3214485e-02
3.7526357e-02
3.9825247e-02
4.0131406e-02
3.8595556e-02
3.5494446e-02
3.1117644e-02
2.5676974e-02
1.9348817e-02
1.2370366e-02
5.0144652e-03
-2.4516970e-03
-9.6749370e-03
-1.6134299e-02
-2.1218630e-02
-2.4407818e-02
-2.5368224e-02
-2.3969664e-02
-2.0293491e-02
-1.4597692e-02
-7.4137198e-03
3.0960771e-04
7.4184445e-03
1.2983431e-02
1.6480315e-02
1.7699216e-02
1.6677251e-02
1.3717976e-02
9.3746525e-03
4.3471582e-03
-7.0619918e-04
-5.3540345e-03
-9.4704400e-03
-1.3136811e-02
-1.6413750e-02
-1.9224414e-02
-2.1404774e-02
-2.2766936e-02
-2.3118292e-02
-2.2284622e-02
-2.0185265e-02
-1.6844455e-02
-1.2331264e-02
-6.7997534e-03
-5.7415192e-04
5.7882776e-03
1.1495751e-02
1.5754937e-02
1.8157089e-02
1.8830307e-02
1.8164656e-02
1.6474109e-02
1.3956056e-02
1.0793057e-02
7.2265473e-03
3.5751594e-03
2.0530251e-04
-2.4805287e-03
-4.0675441e-03
-4.2253826e-03
-2.8432915e-03
-5.5637237e-05
3.8904547e-03
8.7118691e-03
1.3946531e-02
1.8776830e-02
2.2149114e-02
2.3125906e-02
2.1180519e-02
1.6378044e-02
9.4218046e-03
1.5201241e-03
-6.0001867e-03
-1.2181735e-02
-1.6550134e-02
-1.8982890e-02
-1.9736179e-02
-1.9415239e-02
-1.8697629e-02
-1.8067724e-02
-1.7826949e-02
-1.8183614e-02
-1.9172449e-02
-2.0604112e-02
-2.2168119e-02
-2.3574437e-02
-2.4617981e-02
-2.5142969e-02
-2.4986545e-02
-2.3933990e-02
-2.1743101e-02
-1.8174779e-02
-1.2996231e-02
-6.0794084e-03
2.5041665e-03
1.2413032e-02
2.2985521e-02
3.3429660e-02
4.3154872e-02
5.1851247e-02
5.9290054e-02
6.5208374e-02
6.9315044e-02
7.1283158e-02
7.0852653e-02
6.7925001e-02
6.2506206e-02
5.4672542e-02
4.4626254e-02
3.2694060e-02
1.9165491e-02
4.2122418e-03
-1.1919381e-02
-2.8668482e-02
-4.5100721e-02
-6.0081088e-02
-7.2485130e-02
-8.1322838e-02
-8.5887883e-02
-8.5842652e-02
-8.1255395e-02
-7.2706292e-02
-6.1259936e-02
-4.8180004e-02
-3.4577988e-02
-2.1293267e-02
-9.0320727e-03
1.5106830e-03
9.7211731e-03
1.5253724e-02
1.8102948e-02
1.8507778e-02
1.6858937e-02
1.3657889e-02
9.4548167e-03
4.7589692e-03
7.3504609e-06
-4.4098696e-03
-8.1307374e-03
-1.0821870e-02
-1.2192110e-02
-1.1918464e-02
-9.5392122e-03
-4.5458484e-03
3.2961239e-03
1.3496769e-02
2.4621175e-02
3.4786492e-02
4.2534228e-02
4.7220878e-02
4.8845573e-02
4.7787061e-02
4.4622791e-02
3.9982051e-02
3.4449564e-02
2.8563767e-02
2.2842442e-02
1.7714583e-02
1.3433806e-02
1.0078331e-02
7.5762703e-03
5.7267936e-03
4.2611634e-03
2.9498192e-03
1.6089694e-03
-1.7350880e-05
-2.2594007e-03
-5.3983076e-03
-9.5744638e-03
-1.4758451e-02
-2.0705508e-02
-2.6848188e-02
-3.2369199e-02
-3.6494906e-02
-3.8623317e-02
-3.8255052e-02
-3.5034527e-02
-2.8909752e-02
-2.0222764e-02
-9.7260594e-03
1.4218746e-03
1.1779745e-02
1.9890746e-02
2.4587679e-02
2.5187113e-02
2.1480167e-02
1.3681114e-02
2.4204623e-03
-1.1288277e-02
-2.6117677e-02
-4.0585463e-02
-5.3263066e-02
-6.2932400e-02
-6.8632510e-02
-6.9674779e-02
-6.5875176e-02
-5.7840031e-02
-4.6828163e-02
-3.4196913e-02
-2.0935955e-02
-7.5977657e-03
5.5657246e-03
1.8465195e-02
3.1069540e-02
4.3313921e-02
5.4995343e-02
6.5799480e-02
7.5411780e-02
8.3514207e-02
8.9771489e-02
9.3915381e-02
9.5826771e-02
9.5450865e-02
9.2638271e-02
8.7165842e-02
7.8842815e-02
6.7523205e-02
5.3078110e-02
3.5515303e-02
1.5263645e-02
-6.6619179e-03
-2.8738504e-02
-4.9256932e-02
-6.6781728e-02
-8.0391306e-02
-8.9633832e-02
-9.4421035e-02
-9.4959386e-02
-9.1680372e-02
-8.5162704e-02
-7.6140240e-02
-6.5524759e-02
-5.4279008e-02
-4.3178030e-02
-3.2706064e-02
-2.3216607e-02
-1.5072463e-02
-8.5576020e-03
-3.7412303e-03
-4.8234494e-04
1.4719501e-03
2.4987406e-03
3.2041211e-03
4.3830743e-03
6.7574831e-03
1.0584223e-02
1.5426341e-02
2.0406217e-02
2.4742533e-02
2.8051270e-02
3.0281981e-02
3.1548261e-02
3.2024754e-02
3.1900217e-02
3.1341312e-02
3.0467804e-02
2.9367106e-02
2.8116234e-02
2.6781703e-02
2.5418292e-02
2.4060088e-02
2.2700025e-02
2.1281139e-02
1.9726540e-02
1.7995960e-02
1.6107118e-02
1.4114310e-02
1.2082044e-02
1.0068989e-02
8.1251008e-03
