4.0028032e-04
-1.0089437e-03
-2.4842936e-03
-3.7861272e-03
-4.4287064e-03
-4.2925127e-03
-2.6240001e-03
1.1672215e-03
7.0869064e-03
1.4717399e-02
2.2356701e-02
2.8570253e-02
3.2573911e-02
3.3699517e-02
3.1675173e-02
2.6727921e-02
1.9882797e-02
1.2164836e-02
4.4424337e-03
-3.0395595e-03
-1.0344351e-02
-1.6657694e-02
-2.0714222e-02
-2.0802203e-02
-1.6760345e-02
-1.0327762e-02
-3.3480228e-03
1.8996434e-03
4.3024330e-03
3.5052228e-03
-4.6174023e-04
-5.2180720e-03
-8.1032143e-03
-7.6074820e-03
-3.8769134e-03
1.2265912e-03
6.2181850e-03
9.9962363e-03
1.1806036e-02
1.1098895e-02
7.5150880e-03
2.2226913e-03
-2.8629156e-03
-6.0841106e-03
-6.8355031e-03
-5.3990012e-03
-1.9277796e-03
3.2611199e-03
9.7906154e-03
1.6365882e-02
2.0834932e-02
2.2102044e-02
2.0210680e-02
1.6568843e-02
1.2865204e-02
1.0029271e-02
9.1373457e-03
1.0298492e-02
1.3090760e-02
1.7245714e-02
2.2222669e-02
2.7314644e-02
3.1195076e-02
3.3834833e-02
3.6123133e-02
3.7578325e-02
3.7076504e-02
3.3732048e-02
2.7985677e-02
2.0619899e-02
1.2311358e-02
4.3144029e-03
-2.4995575e-03
-7.2240427e-03
-1.0594690e-02
-1.4560923e-02
-1.9170741e-02
-2.3538997e-02
-2.6636801e-02
-2.7716859e-02
-2.6647001e-02
-2.3962949e-02
-2.0440347e-02
-1.5997544e-02
-1.1280980e-02
-7.0206304e-03
-3.2521841e-03
-5.7016461e-04
1.3879135e-03
2.8510614e-03
3.3601858e-03
3.3453876e-03
3.0444913e-03
2.4069067e-03
1.2242022e-03
1.9996428e-04
1.0410979e-03
4.4837375e-03
9.9779979e-03
1.5456143e-02
1.9363513e-02
2.1490369e-02
2.1743611e-02
2.0861085e-02
1.9230359e-02
1.6934478e-02
1.4623097e-02
1.2629949e-02
1.0913093e-02
8.6270765e-03
5.5485259e-03
2.1780564e-03
-1.9559016e-03
-6.5584529e-03
-1.0503255e-02
-1.3035703e-02
-1.3162865e-02
-1.0074778e-02
-3.9431242e-03
3.6610975e-03
1.1259709e-02
1.8020208e-02
2.2855445e-02
2.5854122e-02
2.7705978e-02
2.8821358e-02
2.9343988e-02
2.9363023e-02
2.9216230e-02
2.8191676e-02
2.5521362e-02
2.1284318e-02
1.6169192e-02
1.1120989e-02
5.7858655e-03
-1.6610251e-04
-6.1906118e-03
-1.2064996e-02
-1.6929714e-02
-1.9959073e-02
-2.1737688e-02
-2.3212016e-02
-2.4462078e-02
-2.5395659e-02
-2.6720550e-02
-2.8823685e-02
-3.1298976e-02
-3.3172442e-02
-3.3231280e-02
-3.1133812e-02
-2.7382380e-02
-2.3651931e-02
-2.1283751e-02
-1.9647014e-02
-1.8945634e-02
-1.9632994e-02
-2.1203071e-02
-2.3202959e-02
-2.4735752e-02
-2.5697874e-02
-2.6333461e-02
-2.6575900e-02
-2.6570863e-02
-2.6173549e-02
-2.5667412e-02
-2.5554821e-02
-2.5879136e-02
-2.6397983e-02
-2.7119205e-02
-2.8100684e-02
-2.8504281e-02
-2.7967744e-02
-2.7035682e-02
-2.5366376e-02
-2.2004422e-02
-1.6940367e-02
-1.1522533e-02
-6.6255133e-03
-2.3586661e-03
1.0781421e-03
4.2495886e-03
6.9601072e-03
8.9028835e-03
1.1075488e-02
1.3644334e-02
1.6338347e-02
1.8989517e-02
2.1430522e-02
2.3772670e-02
2.6034752e-02
2.8317197e-02
3.0010544e-02
3.1010938e-02
3.2194728e-02
3.3481403e-02
3.4647867e-02
3.5107840e-02
3.3646321e-02
2.9695217e-02
2.3557873e-02
1.6794400e-02
1.0822485e-02
6.1838878e-03
3.4688134e-03
2.2387583e-03
9.0713130e-04
-1.5349495e-03
-4.2841660e-03
-6.7466483e-03
-9.6901240e-03
-1.2568635e-02
-1.4286463e-02
-1.5078713e-02
-1.5429763e-02
-1.5142069e-02
-1.3792418e-02
-1.1908215e-02
-1.0321639e-02
-9.1811601e-03
-8.3844278e-03
-7.9624281e-03
-8.1861051e-03
-8.3354999e-03
-7.3118536e-03
-5.0156583e-03
-1.9823723e-03
4.2739590e-04
1.8074000e-03
2.9742923e-03
3.8662163e-03
3.9010579e-03
2.7255065e-03
7.0106187e-04
-1.1244550e-03
-1.8191617e-03
-1.4532787e-03
-1.5715886e-03
-2.5609151e-03
-3.5683561e-03
-4.5199535e-03
-4.7223318e-03
-3.7113673e-03
-1.9524262e-03
-4.3039408e-04
1.2834064e-04
4.5956512e-04
7.5131958e-04
8.7867555e-04
1.5463831e-03
2.8791429e-03
3.7567267e-03
2.8438665e-03
7.2397758e-04
-1.6266572e-03
-4.3640575e-03
-7.1196171e-03
-9.6319408e-03
-1.1943987e-02
-1.4376555e-02
-1.7029729e-02
-1.8946922e-02
-1.9981296e-02
-2.0453507e-02
-2.0824366e-02
-2.1479697e-02
-2.1661677e-02
-2.1074393e-02
-1.9616233e-02
-1.6972846e-02
-1.3646407e-02
-1.0494570e-02
-8.0813352e-03
-6.2541544e-03
-4.5002119e-03
-2.2287062e-03
1.9108530e-04
1.4569219e-03
1.9393568e-03
2.7775526e-03
4.0765583e-03
5.4025189e-03
6.0173517e-03
5.7822598e-03
4.7559443e-03
3.1781166e-03
2.1608746e-03
1.9748603e-03
2.6112410e-03
4.8382808e-03
8.7790247e-03
1.3586125e-02
1.8279068e-02
2.2232482e-02
2.4816028e-02
2.6072185e-02
2.6462134e-02
2.6220850e-02
2.5735025e-02
2.3821092e-02
1.9226321e-02
1.3278650e-02
8.2930500e-03
5.6145446e-03
4.4162147e-03
3.3373818e-03
2.4133133e-03
1.7810963e-03
1.6799694e-03
2.3540308e-03
2.8491747e-03
2.2654302e-03
1.1776557e-03
7.4123538e-04
8.0757091e-04
1.2744704e-03
2.4096362e-03
3.8120086e-03
5.7479374e-03
7.4846337e-03
7.9955830e-03
7.9209123e-03
8.0792998e-03
9.2477489e-03
1.1531195e-02
1.4801597e-02
1.7925525e-02
1.8545757e-02
1.6502714e-02
1.2271699e-02
6.0186777e-03
-1.5194890e-03
-9.5359697e-03
-1.6668574e-02
-2.3183695e-02
-3.0264476e-02
-3.8005497e-02
-4.5699947e-02
-5.2097984e-02
-5.7275620e-02
-6.1703901e-02
-6.5422683e-02
-6.8807138e-02
-7.1493125e-02
-7.3183397e-02
-7.3893865e-02
-7.3200675e-02
-7.0824083e-02
-6.5994889e-02
-5.7624346e-02
-4.3700590e-02
-2.4876528e-02
-6.5604982e-03
9.0021375e-03
2.2615150e-02
3.4138728e-02
4.3472028e-02
5.1096971e-02
5.7291312e-02
6.1266636e-02
6.3085498e-02
6.3326145e-02
6.2488900e-02
6.1288986e-02
5.9279592e-02
5.6315798e-02
5.2778164e-02
4.8914118e-02
4.5405895e-02
4.1910889e-02
3.7623876e-02
3.2208082e-02
2.5558660e-02
1.8391104e-02
1.1492769e-02
4.7945466e-03
-1.5436272e-03
-6.4758396e-03
-9.3925387e-03
-1.0887070e-02
-1.1524443e-02
-1.1053593e-02
-9.6608338e-03
-7.7958110e-03
-5.6695578e-03
-3.4603797e-03
-1.3882845e-03
3.5974853e-04
2.2497133e-03
4.3346688e-03
6.0633875e-03
7.0681540e-03
7.3400784e-03
7.4231824e-03
7.6316325e-03
7.5287837e-03
6.4943772e-03
4.5102254e-03
1.4771044e-03
-3.3318827e-03
-1.0125423e-02
-1.7737524e-02
-2.3666104e-02
-2.6278860e-02
-2.6173064e-02
-2.4540335e-02
-2.2346519e-02
-1.9703042e-02
-1.6235719e-02
-1.1919729e-02
-6.6318814e-03
-1.1760642e-03
3.2342428e-03
6.3421706e-03
8.5165602e-03
1.0314284e-02
1.1478348e-02
1.1642036e-02
1.1051835e-02
1.0119964e-02
9.4462612e-03
8.8724835e-03
7.9359346e-03
6.5748161e-03
4.6021220e-03
1.5850568e-03
-2.8093007e-03
-7.4186808e-03
-1.1047378e-02
-1.3869538e-02
-1.5646590e-02
-1.6132990e-02
-1.5601499e-02
-1.4654362e-02
-1.3411928e-02
-1.0911507e-02
-7.2930700e-03
-3.5782183e-03
-7.1030796e-04
1.0060505e-03
3.0451289e-03
5.9328859e-03
8.6834404e-03
1.0831763e-02
1.2193810e-02
1.3309310e-02
1.4491697e-02
1.5410873e-02
1.5618056e-02
1.4373968e-02
1.1678564e-02
7.9549492e-03
3.9842958e-03
2.9912621e-04
-3.5933624e-03
-7.3303485e-03
-1.0090983e-02
-1.1997559e-02
-1.3420917e-02
-1.4467656e-02
-1.4844973e-02
-1.4400409e-02
-1.3303486e-02
-1.2064556e-02
-1.0867814e-02
-9.1358601e-03
-6.8772738e-03
-4.4580620e-03
-2.3903676e-03
-8.4009866e-04
7.4522032e-04
2.2987467e-03
3.8784252e-03
5.7652658e-03
7.7135809e-03
9.3837598e-03
1.0361759e-02
1.0926884e-02
1.1283459e-02
1.1156832e-02
1.0666978e-02
9.5687583e-03
8.1837613e-03
6.9155301e-03
5.7614384e-03
5.2060884e-03
4.8588885e-03
3.9871672e-03
2.0191786e-03
-1.1666267e-03
-4.7644558e-03
-8.2235563e-03
-1.0853384e-02
-1.2506386e-02
-1.3804699e-02
-1.4619386e-02
-1.4732736e-02
-1.3911245e-02
-1.1881627e-02
-8.7156128e-03
-4.7079006e-03
-9.5403072e-04
1.4460307e-03
2.1872354e-03
1.5729381e-03
2.7551401e-04
-1.2074495e-03
-2.6434945e-03
-4.3055653e-03
-6.4131003e-03
-8.6746276e-03
-1.0846132e-02
-1.1823452e-02
-1.0663350e-02
-8.2420082e-03
-5.7414748e-03
-3.5651537e-03
-1.2800757e-03
8.7623259e-04
2.3248627e-03
3.3099383e-03
3.7905896e-03
4.0844391e-03
4.5166491e-03
5.1783096e-03
6.6388889e-03
8.0773270e-03
7.7504150e-03
4.8950956e-03
-1.2222724e-04
-5.7911955e-03
-1.0221677e-02
-1.2031993e-02
-1.1501094e-02
-9.6105796e-03
-6.3394482e-03
-1.5605910e-03
4.7890796e-03
1.2317896e-02
1.9458960e-02
2.5171332e-02
2.9530473e-02
3.2666366e-02
3.4275480e-02
3.4134822e-02
3.2550725e-02
2.9357898e-02
2.4514628e-02
1.8402572e-02
1.0892624e-02
1.7606555e-03
-8.2863381e-03
-1.7592672e-02
-2.5454636e-02
-3.2161232e-02
-3.7929147e-02
-4.3131268e-02
-4.7637829e-02
-5.1290514e-02
-5.4726753e-02
-5.8730481e-02
-6.3262684e-02
-6.7251727e-02
-7.0687689e-02
-7.4155289e-02
-7.7236926e-02
-7.9099791e-02
-7.8871840e-02
-7.6470351e-02
-7.2011054e-02
-6.5814605e-02
-5.8604523e-02
-5.0282102e-02
-4.1041316e-02
-3.1399611e-02
-2.1166717e-02
-1.0808450e-02
-1.5526514e-03
6.2862683e-03
1.2932284e-02
1.7671837e-02
2.0511684e-02
2.2705789e-02
2.4598130e-02
2.6777085e-02
3.0028609e-02
3.3988786e-02
3.8577803e-02
4.4194075e-02
5.0749170e-02
5.6994174e-02
6.1664990e-02
6.4468108e-02
6.5014083e-02
6.2750356e-02
5.7287867e-02
4.9557928e-02
4.1458065e-02
3.3600316e-02
2.5557221e-02
1.6423050e-02
7.0084744e-03
-5.6907509e-04
-6.4392337e-03
-1.1098641e-02
-1.4349990e-02
-1.5361197e-02
-1.2682318e-02
-6.5037099e-03
1.5991449e-03
9.9398657e-03
1.7798645e-02
2.5217485e-02
3.1486776e-02
3.5763553e-02
3.7811053e-02
3.8813592e-02
4.0170942e-02
4.1439845e-02
4.2143011e-02
4.2061292e-02
4.1043368e-02
3.9348731e-02
3.6850104e-02
3.2937889e-02
2.6057521e-02
1.7065864e-02
9.5786873e-03
4.6899616e-03
1.7340788e-03
-2.4897902e-04
-2.1040731e-03
-4.1959491e-03
-7.1648103e-03
-1.0743059e-02
-1.4640398e-02
-1.8610610e-02
-2.1966230e-02
-2.4324626e-02
-2.5362704e-02
-2.5486448e-02
-2.5199938e-02
-2.5119522e-02
-2.5972013e-02
-2.6994614e-02
-2.6846425e-02
-2.4314736e-02
-1.9425091e-02
-1.3403440e-02
-6.0991401e-03
2.7579152e-03
1.1909268e-02
1.9537762e-02
2.4835054e-02
2.8627535e-02
3.1092622e-02
3.1508300e-02
3.0525430e-02
2.9484255e-02
2.8883817e-02
2.8168226e-02
2.7178896e-02
2.6178550e-02
2.4480400e-02
2.1707202e-02
1.7701225e-02
1.2331417e-02
5.9498565e-03
-8.4917105e-04
-6.7891855e-03
-1.0859263e-02
-1.3227598e-02
-1.4453095e-02
-1.4627064e-02
-1.3881869e-02
-1.2655329e-02
-1.1124067e-02
-9.9457742e-03
-9.4438711e-03
-8.7158308e-03
-7.6490596e-03
-6.4801161e-03
-5.5807190e-03
-5.3231373e-03
-4.8025113e-03
-3.9936877e-03
-3.1645948e-03
-2.0321079e-03
-9.5245498e-04
1.0233963e-04
9.6347079e-04
1.4120497e-03
1.6382591e-03
1.5677446e-03
1.3944895e-03
1.0345891e-03
3.5297815e-04
-2.9847255e-04
-5.4880229e-04
9.9448239e-06
9.8991813e-04
1.7540754e-03
2.0286140e-03
1.8075712e-03
1.5492615e-03
1.4977597e-03
1.4378508e-03
7.7780862e-04
-3.9845433e-04
-2.2048572e-03
-5.0178955e-03
-7.8597306e-03
-1.0292836e-02
-1.2359824e-02
-1.3828252e-02
-1.5262571e-02
-1.6768133e-02
-1.8190342e-02
-1.9577895e-02
-2.0774324e-02
-2.1992329e-02
-2.3162694e-02
-2.4269866e-02
-2.4889668e-02
-2.4518148e-02
-2.3698389e-02
-2.2317916e-02
-2.0347198e-02
-1.8516449e-02
-1.7177150e-02
-1.6482252e-02
-1.5835949e-02
-1.4845113e-02
-1.3878392e-02
-1.3206327e-02
-1.2785822e-02
-1.2020885e-02
-1.1156514e-02
-1.0557492e-02
-9.7447561e-03
-8.4882134e-03
-6.6375401e-03
-4.3543458e-03
-1.7764369e-03
6.0687409e-04
2.2661118e-03
3.8265366e-03
5.3659099e-03
6.9283856e-03
8.9081557e-03
1.1210570e-02
1.3916777e-02
1.6432437e-02
1.8646951e-02
2.1111831e-02
2.3870914e-02
2.7118932e-02
2.9928592e-02
3.1557062e-02
3.2272205e-02
3.2225898e-02
3.2043803e-02
3.1933688e-02
3.1859298e-02
3.1609424e-02
3.1023007e-02
3.0665988e-02
3.0578519e-02
3.0676405e-02
3.0514593e-02
2.9667324e-02
2.8772171e-02
2.7508622e-02
2.5441070e-02
2.2759775e-02
1.8721872e-02
1.3168620e-02
7.0748892e-03
1.4030039e-03
-3.8056870e-03
-8.8014334e-03
-1.2483297e-02
-1.4491458e-02
-1.5500108e-02
-1.5976612e-02
-1.6273267e-02
-1.6038263e-02
-1.5500719e-02
-1.5048422e-02
-1.4591152e-02
-1.4083712e-02
-1.3605247e-02
-1.3582828e-02
-1.3635688e-02
-1.3642368e-02
-1.3695307e-02
-1.3051477e-02
-1.1955979e-02
-1.0838109e-02
-9.8212004e-03
-9.0447516e-03
-7.8116519e-03
-5.9163896e-03
-4.2139007e-03
-3.7967837e-03
-4.6296986e-03
-5.8291916e-03
-7.0459606e-03
-7.6454801e-03
-7.6973371e-03
-7.8474899e-03
-8.1197160e-03
-8.5785395e-03
-8.8547681e-03
-8.7794771e-03
-8.3199872e-03
-7.3779923e-03
-6.1858679e-03
-4.3719667e-03
-2.2263736e-03
-2.7393961e-04
1.7289952e-03
3.3583743e-03
4.6989777e-03
6.0807942e-03
7.2245982e-03
8.5281658e-03
1.0166716e-02
1.1746510e-02
1.2192252e-02
1.0851852e-02
8.4262682e-03
5.2551967e-03
1.8360062e-03
-1.3261291e-03
-3.8862467e-03
-5.3703236e-03
-6.0501907e-03
-6.4459710e-03
-7.0549380e-03
-7.6141465e-03
-7.9124743e-03
-9.0434789e-03
-1.0715329e-02
-1.1822529e-02
-1.2549217e-02
-1.3660428e-02
-1.5180062e-02
-1.5837164e-02
-1.5293718e-02
-1.4008368e-02
-1.2077686e-02
-9.6967146e-03
-6.8608880e-03
-4.1813584e-03
-2.4116421e-03
-1.2735998e-03
-1.4808408e-04
1.3228064e-03
2.9555523e-03
4.7653039e-03
6.7290323e-03
8.4409371e-03
9.9254384e-03
1.1290986e-02
1.2394216e-02
1.2851382e-02
1.2935232e-02
1.3699213e-02
1.4527868e-02
1.4146573e-02
1.2816738e-02
1.0934426e-02
8.8495803e-03
6.6648330e-03
4.6165180e-03
3.3593807e-03
2.1905654e-03
3.0802935e-04
-2.2356819e-03
-4.8213956e-03
-6.8543506e-03
-9.0730967e-03
-1.1903684e-02
-1.4305266e-02
-1.5203323e-02
-1.4975081e-02
-1.4161800e-02
-1.2299946e-02
-9.9257842e-03
-7.5635170e-03
-5.1569744e-03
-3.2263080e-03
-1.6298895e-03
-4.8909365e-04
-2.7145976e-05
1.0906612e-04
2.1761784e-04
8.1926280e-04
1.7699089e-03
2.7974077e-03
3.6421769e-03
3.6431432e-03
3.1842664e-03
3.1166611e-03
3.3714032e-03
3.2375358e-03
2.5214157e-03
1.9922225e-03
1.9066202e-03
2.1965996e-03
2.9203550e-03
3.5867299e-03
3.9883726e-03
4.2914961e-03
4.6528388e-03
4.4839854e-03
3.3983002e-03
2.1425405e-03
8.9993719e-04
-2.2195942e-04
-1.2941553e-03
-2.7373077e-03
-4.0029404e-03
-4.7643014e-03
-5.1031898e-03
-5.0728360e-03
-4.9932464e-03
-4.8893681e-03
-4.4314423e-03
-2.8823734e-03
-1.0355620e-03
-3.1760453e-04
2.2162324e-04
1.6020735e-03
3.6891215e-03
5.8781860e-03
7.6627701e-03
9.2772554e-03
1.0850252e-02
1.2457877e-02
1.3913647e-02
1.5197127e-02
1.6496350e-02
1.7450712e-02
1.8225650e-02
1.8306079e-02
1.7037700e-02
1.5223143e-02
1.2818482e-02
9.4170142e-03
5.6144767e-03
2.6027878e-03
8.6507539e-04
-4.7813348e-04
-1.8152843e-03
-3.3093545e-03
-5.1225062e-03
-6.7435959e-03
-7.8484883e-03
-8.5919399e-03
-9.7891741e-03
-1.1898546e-02
-1.4041416e-02
-1.6077319e-02
-1.8287490e-02
-2.0336327e-02
-2.2081572e-02
-2.3079895e-02
-2.3247385e-02
-2.2656448e-02
-2.1152914e-02
-1.8765465e-02
-1.5791147e-02
-1.2517659e-02
-7.9730155e-03
-2.2907435e-03
2.3406031e-03
4.7976829e-03
5.4847532e-03
5.8432250e-03
6.3672007e-03
6.0690887e-03
5.0070175e-03
3.5382948e-03
2.4193993e-03
2.5643431e-03
3.5725715e-03
5.2698355e-03
7.8738949e-03
1.2106022e-02
1.8469129e-02
2.6219373e-02
3.4921172e-02
4.4076799e-02
5.2332823e-02
5.8114649e-02
6.0593515e-02
5.9324830e-02
5.3896159e-02
4.4624656e-02
3.2822924e-02
2.0959963e-02
1.0733792e-02
2.2804471e-03
-4.9212898e-03
-1.1699496e-02
-1.8330012e-02
-2.4864787e-02
-3.1060552e-02
-3.6437188e-02
-4.1512041e-02
-4.6895311e-02
-5.2364156e-02
-5.7068018e-02
-6.0341548e-02
-6.2437773e-02
-6.3293000e-02
-6.2849813e-02
-6.1541210e-02
-5.9258085e-02
-5.5810197e-02
-5.0603738e-02
-4.3066214e-02
-3.3139102e-02
-1.9940294e-02
-5.2490913e-03
6.9182822e-03
1.5730765e-02
2.1584076e-02
2.4567790e-02
2.5742651e-02
2.6570816e-02
2.7255485e-02
2.7265875e-02
2.7223053e-02
2.7403659e-02
2.7474342e-02
2.7125691e-02
2.6064773e-02
2.4802069e-02
2.3719222e-02
2.2666081e-02
2.1262030e-02
1.9325649e-02
1.7279078e-02
1.5199931e-02
1.3428144e-02
1.1848557e-02
9.3691612e-03
6.1459722e-03
2.8115660e-03
-4.4265620e-04
-3.3188198e-03
-5.7127383e-03
-7.6277232e-03
-9.0376006e-03
-9.7277983e-03
-9.6102320e-03
-8.7867865e-03
-7.1167725e-03
-4.6870829e-03
-1.6975075e-03
1.6669857e-03
4.9803430e-03
8.0387462e-03
1.0809505e-02
1.2956024e-02
1.3895873e-02
1.3752091e-02
1.3198458e-02
1.2643649e-02
1.2530693e-02
1.2370883e-02
1.1346073e-02
9.7321575e-03
7.9957718e-03
6.6471822e-03
5.8560520e-03
5.0967105e-03
3.9989532e-03
2.7978809e-03
2.0496853e-03
1.4114051e-03
4.1100557e-05
-2.1679362e-03
-4.8765351e-03
-7.2300935e-03
-9.3177454e-03
-1.1510739e-02
-1.2986791e-02
-1.3581401e-02
-1.3680689e-02
-1.3851022e-02
-1.4046439e-02
-1.3744230e-02
-1.3164207e-02
-1.2158517e-02
-1.0763407e-02
-9.3302376e-03
-7.4164576e-03
-5.0830333e-03
-3.1030633e-03
-1.8453014e-03
-9.7468103e-04
-2.5227539e-04
-9.2860011e-05
-2.8552727e-04
-5.7808667e-04
-1.0550991e-03
-1.5970490e-03
-1.8395020e-03
-1.0430110e-03
3.2878065e-04
1.4157835e-03
2.3007304e-03
3.0719783e-03
3.8841441e-03
4.8566197e-03
5.6990319e-03
5.8671691e-03
5.2543824e-03
4.5308582e-03
4.0734720e-03
4.0408671e-03
4.2689126e-03
4.1505566e-03
4.0644901e-03
4.2077427e-03
4.3234486e-03
4.1284645e-03
2.7923899e-03
2.4559913e-04
-2.8941890e-03
-5.7758697e-03
-8.1070507e-03
-1.0132832e-02
-1.1801727e-02
-1.3417173e-02
-1.4964601e-02
-1.5763008e-02
-1.5449426e-02
-1.4437135e-02
-1.3094520e-02
-1.1488372e-02
-1.0090066e-02
-8.8395309e-03
-7.1264605e-03
-4.8739472e-03
-2.0142790e-03
1.4213155e-03
4.6206200e-03
7.3504072e-03
9.6231120e-03
1.1324678e-02
1.3091180e-02
1.5064072e-02
1.6988203e-02
1.8513188e-02
1.9368804e-02
1.9724058e-02
2.0035463e-02
2.0360702e-02
2.0234152e-02
1.9926368e-02
1.9550981e-02
1.9086288e-02
1.9190214e-02
2.0340805e-02
2.2670696e-02
2.5406549e-02
2.7981707e-02
3.0563893e-02
3.1996700e-02
3.0824857e-02
2.5845111e-02
1.7774888e-02
9.5599041e-03
1.5755098e-03
-6.9618482e-03
-1.6004436e-02
-2.5109103e-02
-3.2861165e-02
-3.8749295e-02
-4.2303541e-02
-4.3046239e-02
-4.1418148e-02
-3.7647906e-02
-3.2676122e-02
-2.7818399e-02
-2.4424988e-02
-2.3021803e-02
-2.2667114e-02
-2.2745840e-02
-2.2479317e-02
-2.1608849e-02
-2.0056589e-02
-1.6876041e-02
-1.1993978e-02
-6.4153492e-03
-2.2302194e-03
-9.5222415e-04
-2.0965451e-03
-3.8654747e-03
-4.3461550e-03
-3.3875885e-03
-1.2560766e-03
2.1640460e-03
5.9237950e-03
9.5487904e-03
1.3310229e-02
1.6669397e-02
1.8943346e-02
2.0214527e-02
2.0766875e-02
1.9780949e-02
1.7019840e-02
1.3611723e-02
9.8956409e-03
5.6816579e-03
9.5796897e-04
-3.5473302e-03
-7.2608640e-03
-1.0457335e-02
-1.3039735e-02
-1.5774082e-02
-1.9093239e-02
-2.1726056e-02
-2.2875676e-02
-2.2608737e-02
-2.1568975e-02
-1.9945429e-02
-1.7845614e-02
-1.5791019e-02
-1.3410362e-02
-1.0913642e-02
-8.9451669e-03
-7.1990212e-03
-5.6003465e-03
-4.1015192e-03
-2.3524646e-03
-1.7443693e-04
1.9604323e-03
3.1268084e-03
3.7318591e-03
4.1212395e-03
4.1264426e-03
4.1208512e-03
4.0672634e-03
4.4654031e-03
5.7695857e-03
7.5717050e-03
9.3201642e-03
1.0763095e-02
1.2064507e-02
1.2817549e-02
1.2865568e-02
1.2390805e-02
1.1591547e-02
1.0973602e-02
9.9555774e-03
8.3307474e-03
6.6559568e-03
4.8511153e-03
3.4628799e-03
2.8175311e-03
2.5827979e-03
2.3829785e-03
1.4148582e-03
-3.1692977e-04
-1.9109631e-03
-2.8796798e-03
-3.5542343e-03
-4.2457859e-03
-4.8251356e-03
-5.0913941e-03
-4.6708190e-03
-3.8237497e-03
-2.8391367e-03
-1.0756821e-03
1.0729943e-03
2.8169688e-03
4.2683328e-03
5.5121816e-03
6.9138772e-03
8.5078755e-03
9.8030660e-03
1.0360860e-02
1.0157116e-02
9.7831912e-03
9.0050110e-03
7.4456564e-03
5.3636139e-03
2.9580283e-03
1.0108598e-03
1.8897388e-04
2.2526601e-04
2.0962473e-04
-3.4271742e-04
-7.8619913e-04
-7.5923382e-04
-5.3415939e-04
-2.4359553e-04
5.5471412e-04
2.2644379e-03
4.4322305e-03
6.5004684e-03
7.9100475e-03
8.7107805e-03
9.4821184e-03
1.0218339e-02
1.1542990e-02
1.3711083e-02
1.5559356e-02
1.6423611e-02
1.6405184e-02
1.6053099e-02
1.5406431e-02
1.4288606e-02
1.3238647e-02
1.2179175e-02
1.1179501e-02
1.0353492e-02
9.1123580e-03
7.4285358e-03
5.3002739e-03
2.8889694e-03
5.1890568e-04
-1.5074307e-03
-2.8997773e-03
-4.0699415e-03
-4.7872202e-03
-5.1120336e-03
-5.5245569e-03
-5.9020209e-03
-6.6962807e-03
-7.6393059e-03
-8.0406156e-03
-8.1171945e-03
-8.4188027e-03
-9.1639252e-03
-9.3797411e-03
-8.6293388e-03
-7.8813978e-03
-7.9717756e-03
-8.7561518e-03
-8.8782915e-03
-8.0273747e-03
-6.5689947e-03
-3.5693043e-03
9.3272586e-04
5.4299977e-03
8.7518902e-03
1.1136087e-02
1.3039208e-02
1.3983626e-02
1.3931055e-02
1.3171405e-02
1.1962312e-02
1.0393911e-02
8.5272337e-03
6.7277841e-03
4.7583561e-03
2.7410298e-03
1.2422055e-03
-3.0140127e-05
-1.4221531e-03
-2.8846154e-03
-4.0100870e-03
-5.0024384e-03
-6.2729762e-03
-7.1565865e-03
-7.5166336e-03
-7.2239512e-03
-6.6329281e-03
-6.9173328e-03
-7.6528418e-03
-8.5931294e-03
-1.0011884e-02
-1.1467884e-02
-1.2471045e-02
-1.2831653e-02
-1.3436644e-02
-1.4606699e-02
-1.5894297e-02
-1.7338575e-02
-1.8271568e-02
-1.8613082e-02
-1.8982302e-02
-1.9548745e-02
-2.0696873e-02
-2.2275052e-02
-2.3775298e-02
-2.5337301e-02
-2.7497499e-02
-2.9676888e-02
-3.0413055e-02
-2.9302666e-02
-2.6349907e-02
-2.1224960e-02
-1.2874813e-02
-2.4837514e-03
5.7815531e-03
1.0944860e-02
1.3878252e-02
1.4954897e-02
1.5480640e-02
1.6127214e-02
1.6654749e-02
1.6581095e-02
1.6244973e-02
1.6143153e-02
1.6139104e-02
1.6628118e-02
1.7338800e-02
1.7996906e-02
1.8930605e-02
1.9497353e-02
1.9028986e-02
1.7192789e-02
1.4653748e-02
1.2679912e-02
1.1419727e-02
1.0325379e-02
8.5381633e-03
6.1091236e-03
4.0456567e-03
2.5651464e-03
1.8683999e-03
2.1566791e-03
3.2087146e-03
4.9988685e-03
6.9501103e-03
8.6824751e-03
1.0375619e-02
1.1552042e-02
1.1479514e-02
1.0288450e-02
9.0864149e-03
8.0494152e-03
6.6187053e-03
4.8702224e-03
2.9664103e-03
1.5093418e-03
7.9203662e-04
3.1882436e-04
-7.6403232e-04
-2.7147416e-03
-4.9343971e-03
-7.4761096e-03
-1.0384629e-02
-1.3299954e-02
-1.5600234e-02
-1.6726491e-02
-1.7199486e-02
-1.7117970e-02
-1.5876918e-02
-1.3801457e-02
-1.1223732e-02
-8.7656968e-03
-7.3683567e-03
-6.7761822e-03
-6.1259219e-03
-4.8368259e-03
-3.0997843e-03
-1.3354486e-03
-9.1463479e-05
2.0699534e-04
3.2626623e-04
5.8511585e-04
3.6615995e-04
-1.9832607e-04
-4.9663465e-04
9.4963521e-05
1.6444459e-03
3.5977925e-03
5.2789143e-03
6.0189387e-03
5.7254514e-03
4.8753304e-03
4.0394732e-03
3.0501504e-03
1.6197114e-03
-5.6800006e-05
-2.0778853e-03
-3.9809576e-03
-5.1063579e-03
-5.6216953e-03
-6.3218871e-03
-7.7255088e-03
-8.9600399e-03
-9.2756972e-03
-8.5913048e-03
-6.6846857e-03
-4.0970236e-03
-1.2217644e-03
1.9960088e-03
5.1517201e-03
7.9618868e-03
9.5435936e-03
1.0250120e-02
1.1450473e-02
1.3037658e-02
1.4531404e-02
1.5310814e-02
1.5728507e-02
1.6643368e-02
1.8112771e-02
1.9840531e-02
2.1196676e-02
2.1819473e-02
2.1600024e-02
2.0888900e-02
1.9958416e-02
1.8233658e-02
1.5831471e-02
1.3313331e-02
1.0494958e-02
7.1835284e-03
3.8564413e-03
9.4161968e-04
-2.1763779e-03
-5.7214074e-03
-9.3561375e-03
-1.3640588e-02
-1.8813053e-02
-2.3794339e-02
-2.7572572e-02
-3.0148794e-02
-3.1481599e-02
-3.1284476e-02
-3.0221987e-02
-2.8819766e-02
-2.6905106e-02
-2.5013478e-02
-2.3318750e-02
-2.1119485e-02
-1.7928060e-02
-1.4282721e-02
-1.1248448e-02
-8.6087020e-03
-6.1776352e-03
-4.1359000e-03
-2.1625752e-03
-5.3942605e-05
2.5024680e-03
5.0743044e-03
7.1437073e-03
8.7024954e-03
9.4422997e-03
9.5465310e-03
9.0077706e-03
7.9581217e-03
7.1859757e-03
6.6847203e-03
6.4721704e-03
6.2355386e-03
5.8386276e-03
5.7531731e-03
5.6019139e-03
5.2773902e-03
4.3525830e-03
2.5943219e-03
6.7449087e-04
-1.0012716e-03
-2.1668547e-03
-3.1832692e-03
-3.8905778e-03
-4.0261689e-03
-4.3952086e-03
-5.0126837e-03
-5.4164971e-03
-5.0234485e-03
-3.7172033e-03
-2.8892535e-03
-3.0794544e-03
-3.3015853e-03
-2.6022082e-03
-1.3913729e-03
-8.7481878e-04
-5.4234066e-04
3.4482982e-04
1.0228410e-03
7.3560331e-04
-4.0120338e-04
-1.2082324e-03
-1.0939423e-03
-3.7425167e-04
2.5205443e-04
-8.1362360e-05
-1.0253483e-03
-2.3184309e-03
-3.7552468e-03
-4.7575502e-03
-5.5118397e-03
-5.8487023e-03
-5.3291678e-03
-4.0177737e-03
-2.0442836e-03
7.8715557e-04
5.3516405e-03
1.0887491e-02
1.5304063e-02
1.7676230e-02
1.8209039e-02
1.8103007e-02
1.7461201e-02
1.5957058e-02
1.4522256e-02
1.3540232e-02
1.2565208e-02
1.1229809e-02
9.4756848e-03
7.3386278e-03
4.9724426e-03
2.7978085e-03
9.5466106e-04
-5.0878464e-04
-1.3243770e-03
-1.3383061e-03
-9.2460655e-04
-8.9430874e-04
-1.4034077e-03
-2.3974824e-03
-3.9200382e-03
-5.8293647e-03
-8.1890346e-03
-1.0487888e-02
-1.2153316e-02
-1.2961270e-02
-1.3105763e-02
-1.3700868e-02
-1.4800348e-02
-1.5758854e-02
-1.6582509e-02
-1.7155605e-02
-1.7790350e-02
-1.8363433e-02
-1.8140982e-02
-1.7141679e-02
-1.5314365e-02
-1.2613603e-02
-9.6596132e-03
-7.0736980e-03
-4.7005219e-03
-2.3907962e-03
-4.7656414e-04
1.4065265e-03
3.3257662e-03
4.7416194e-03
5.4295394e-03
5.2709317e-03
4.7410959e-03
4.4814810e-03
4.7579037e-03
5.1082903e-03
5.2459570e-03
6.0998540e-03
7.3805587e-03
7.8822806e-03
7.7558967e-03
7.4938269e-03
7.5630791e-03
8.0339127e-03
8.5714137e-03
8.7349517e-03
8.5330987e-03
9.1080803e-03
1.0083115e-02
1.0417279e-02
1.0407610e-02
1.0239080e-02
1.0576443e-02
1.1753946e-02
1.2913997e-02
1.3550009e-02
1.3609455e-02
1.3566634e-02
1.3213114e-02
1.2278451e-02
1.1518434e-02
1.0779511e-02
9.9359224e-03
9.4297605e-03
9.2974840e-03
9.4502222e-03
9.9366953e-03
1.0641179e-02
1.1095247e-02
1.1269730e-02
1.1235431e-02
1.0643400e-02
9.1697315e-03
6.9874729e-03
5.2298147e-03
3.7106609e-03
1.1208031e-03
-1.5452096e-03
-3.4495232e-03
-5.6466786e-03
-9.2606903e-03
-1.3845129e-02
-1.7532988e-02
-2.0273304e-02
-2.3149295e-02
-2.5826524e-02
-2.6840669e-02
-2.5763617e-02
-2.3769267e-02
-2.0769656e-02
-1.6716003e-02
-1.2993912e-02
-9.9942293e-03
-7.5182450e-03
-5.3772800e-03
-3.5632116e-03
-1.8493384e-03
4.8029929e-04
3.3240295e-03
6.2429407e-03
8.4087109e-03
9.1589530e-03
8.8820533e-03
8.2323772e-03
8.2895606e-03
9.3292269e-03
1.0434531e-02
1.1073063e-02
1.1060601e-02
1.0588539e-02
1.0398141e-02
1.0938269e-02
1.1700945e-02
1.2320912e-02
1.2877961e-02
1.2585359e-02
1.1252217e-02
9.9267937e-03
8.7861328e-03
7.4847924e-03
5.8675846e-03
3.8363505e-03
1.8653534e-03
8.1300733e-05
-1.9054226e-03
-4.0469508e-03
-5.7628887e-03
-6.7112138e-03
-7.1021999e-03
-6.4903740e-03
-5.1458010e-03
-4.2353987e-03
-3.5717112e-03
-2.6783318e-03
-1.5789634e-03
-6.8530922e-04
-2.0131813e-04
1.5057181e-04
6.1409605e-05
-5.4546582e-04
-1.7540888e-03
-3.5162769e-03
-5.0133251e-03
-5.9857428e-03
-6.4405253e-03
-6.6875467e-03
-7.3146253e-03
-8.2843523e-03
-8.7536879e-03
-8.3490798e-03
-8.0499254e-03
-7.7864351e-03
-6.8564275e-03
-5.2579862e-03
-2.4195746e-03
1.7977621e-03
6.5690016e-03
1.0883929e-02
1.4037026e-02
1.6115576e-02
1.7175952e-02
1.7032870e-02
1.6087769e-02
1.5026460e-02
1.4021148e-02
1.2471477e-02
1.0209012e-02
7.3798505e-03
4.2172815e-03
1.6444878e-03
-3.0710724e-04
-2.0374695e-03
-3.7756901e-03
-5.5022508e-03
-6.6505912e-03
-7.3528305e-03
-7.5891200e-03
-7.4807459e-03
-7.6354915e-03
-7.8427983e-03
-8.0845466e-03
-8.0858999e-03
-7.6233200e-03
-7.1743613e-03
-6.8665992e-03
-6.8294247e-03
-6.8283600e-03
-6.6522239e-03
-6.2859399e-03
-5.8891659e-03
-6.0483162e-03
-6.4952510e-03
-7.2784303e-03
-9.0049591e-03
-1.0988390e-02
-1.2506964e-02
-1.3588503e-02
-1.4351653e-02
-1.4922222e-02
-1.5055331e-02
-1.4813930e-02
-1.4684705e-02
-1.4809600e-02
-1.4728126e-02
-1.4010412e-02
-1.2410208e-02
-9.7375342e-03
-7.2797047e-03
-5.7256198e-03
-4.1418313e-03
-2.2356643e-03
1.3045229e-04
2.5855936e-03
4.4973667e-03
6.5210261e-03
9.1077040e-03
1.1604208e-02
1.3220647e-02
1.4157430e-02
1.5314233e-02
1.6750445e-02
1.8217820e-02
1.9344656e-02
2.0040801e-02
2.0655780e-02
2.0804269e-02
2.0611623e-02
2.0162202e-02
1.8784362e-02
1.6108683e-02
1.1506958e-02
5.8785713e-03
1.3415764e-03
-2.0287098e-03
-5.5953058e-03
-9.7319741e-03
-1.3423427e-02
-1.6280756e-02
-1.8488526e-02
-2.0059269e-02
-2.0840734e-02
-2.0260319e-02
-1.8839122e-02
-1.7305805e-02
-1.5213284e-02
-1.2883007e-02
-1.0605183e-02
-8.3979278e-03
-7.1691756e-03
-6.7475047e-03
-6.1085559e-03
-4.8408110e-03
-3.3162712e-03
-1.5741601e-03
4.5554957e-04
2.4928289e-03
5.0917065e-03
8.0196366e-03
1.0358867e-02
1.1770173e-02
1.2088839e-02
1.1979637e-02
1.1499968e-02
9.9804803e-03
8.0798120e-03
6.4238455e-03
5.2386075e-03
4.6276109e-03
4.2449870e-03
3.7414265e-03
2.9391956e-03
2.5533196e-03
2.4730603e-03
1.8763151e-03
8.7575367e-04
-3.3321077e-04
-1.3294532e-03
-1.9954675e-03
-2.6801903e-03
-3.7463246e-03
-4.9859133e-03
-5.7967464e-03
-6.7227480e-03
-7.8899275e-03
-8.9842453e-03
-1.0000718e-02
-1.0114371e-02
-9.4132120e-03
-8.6525242e-03
-7.8464465e-03
-6.6842314e-03
-4.5464444e-03
-1.9197769e-03
3.2898089e-04
2.2464645e-03
3.7957688e-03
4.9749140e-03
5.4852703e-03
5.5231962e-03
5.6282671e-03
5.6683459e-03
5.7908563e-03
6.0166136e-03
6.3492331e-03
6.7497982e-03
6.8377554e-03
6.5831321e-03
5.9348543e-03
4.8675503e-03
3.1094205e-03
1.4080955e-04
-3.5195030e-03
-7.0708921e-03
-1.0126740e-02
-1.2855995e-02
-1.5516076e-02
-1.7755515e-02
-1.9968419e-02
-2.2387577e-02
-2.4759436e-02
-2.7052615e-02
-2.8550837e-02
-2.9204811e-02
-2.9665688e-02
-2.9808648e-02
-2.9146050e-02
-2.7580717e-02
-2.5196210e-02
-2.1380419e-02
-1.5927206e-02
-9.6378533e-03
-2.8844560e-03
4.0007934e-03
1.0285945e-02
1.5659001e-02
2.0381173e-02
2.4653605e-02
2.8375256e-02
3.1675678e-02
3.4211197e-02
3.5553397e-02
3.6491402e-02
3.7992306e-02
4.0367947e-02
4.2759772e-02
4.4490501e-02
4.6474422e-02
4.8730531e-02
5.0342927e-02
5.0500635e-02
4.8943732e-02
4.6434573e-02
4.2714695e-02
3.6773078e-02
2.7614830e-02
1.4424374e-02
-4.5964330e-04
-1.2809399e-02
-2.1739604e-02
-2.8710387e-02
-3.3620748e-02
-3.6094875e-02
-3.7482550e-02
-3.8504783e-02
-3.8627266e-02
-3.7044187e-02
-3.3571935e-02
-2.9492682e-02
-2.5397372e-02
-2.0916681e-02
-1.6039635e-02
-1.1126522e-02
-6.6789548e-03
-2.9980640e-03
-1.9956975e-04
2.3007125e-03
4.9247388e-03
7.2023215e-03
8.8592032e-03
9.4223278e-03
8.5193014e-03
6.7895302e-03
5.0002008e-03
3.9614804e-03
3.6362311e-03
3.2210027e-03
2.5233849e-03
1.6302129e-03
1.1934421e-03
1.0417947e-03
8.5580719e-04
7.5737940e-04
-2.8510798e-04
-2.5165964e-03
-5.5961053e-03
-9.1777435e-03
-1.2474123e-02
-1.5248960e-02
-1.8060835e-02
-2.1560646e-02
-2.4389451e-02
-2.5096021e-02
-2.4075656e-02
-2.1307468e-02
-1.6757040e-02
-1.0226164e-02
-2.3508477e-03
4.1860866e-03
8.3352570e-03
1.0681121e-02
1.1687068e-02
1.1472051e-02
1.0271993e-02
8.7613506e-03
6.8355038e-03
4.9941221e-03
3.4183264e-03
1.6209503e-03
2.1424688e-04
-1.0848059e-03
-2.5942584e-03
-3.5584688e-03
-4.1261929e-03
-4.4975393e-03
-4.3636407e-03
-3.4692456e-03
-1.9666925e-03
-6.9417627e-04
2.8310883e-04
1.0040734e-03
1.5095359e-03
2.2936541e-03
3.2480460e-03
4.3378228e-03
5.3637712e-03
6.0017681e-03
6.2423169e-03
5.9265604e-03
5.0452890e-03
3.9143124e-03
3.1699745e-03
3.0713997e-03
3.3231678e-03
3.8242309e-03
4.3649579e-03
4.7261601e-03
4.9524443e-03
5.4101203e-03
6.0531247e-03
6.2819125e-03
6.4705381e-03
7.1114496e-03
7.6436559e-03
7.4910975e-03
6.7000198e-03
5.3049133e-03
3.3064911e-03
1.5671779e-03
9.1714362e-04
1.2005965e-03
1.9788727e-03
2.7798845e-03
3.5323842e-03
4.3317651e-03
4.9431574e-03
5.6186648e-03
6.4641430e-03
7.1503201e-03
7.4581333e-03
7.4121081e-03
7.6360032e-03
8.2431814e-03
9.0586875e-03
9.6542033e-03
9.3340941e-03
9.0626183e-03
9.0328471e-03
8.1008185e-03
6.7177921e-03
5.3261859e-03
3.6530452e-03
1.4763852e-03
-8.6966275e-04
-2.8460716e-03
-5.1805216e-03
-8.0675619e-03
-1.0943081e-02
-1.3561170e-02
-1.5524247e-02
-1.6870782e-02
-1.7205853e-02
-1.6411886e-02
-1.5520171e-02
-1.4978203e-02
-1.4696610e-02
-1.4220237e-02
-1.3517103e-02
-1.3312478e-02
-1.3696149e-02
-1.4366155e-02
-1.4794310e-02
-1.4628411e-02
-1.3773213e-02
-1.1934124e-02
-9.0867924e-03
-4.6232688e-03
1.1865199e-03
6.8182756e-03
1.1997683e-02
1.6379800e-02
1.8838436e-02
1.9274432e-02
1.9014472e-02
1.8966436e-02
1.8784756e-02
1.8671658e-02
1.8754068e-02
1.8196551e-02
1.6759523e-02
1.4845851e-02
1.2967447e-02
1.1097094e-02
8.7434228e-03
5.7320490e-03
2.2279509e-03
-8.3376081e-04
-3.0461996e-03
-4.5320347e-03
-5.4415747e-03
-6.3084876e-03
-6.7810596e-03
-7.0928837e-03
-7.8836728e-03
-8.7642709e-03
-9.6443157e-03
-1.0083820e-02
-9.2160790e-03
-7.1887671e-03
-4.7964533e-03
-2.4898221e-03
-1.5820537e-04
1.9284901e-03
3.5664936e-03
5.1467941e-03
6.3388931e-03
7.0913941e-03
7.9054083e-03
8.7766183e-03
9.2770588e-03
9.3179752e-03
9.5953033e-03
9.7667680e-03
9.4440378e-03
9.1357977e-03
8.4906991e-03
7.1755866e-03
5.4948970e-03
3.9059883e-03
2.2021361e-03
-1.9486263e-04
-2.5986811e-03
-4.5168618e-03
-5.9757744e-03
-7.1752547e-03
-8.5225941e-03
-9.7826826e-03
-1.1297852e-02
-1.3309221e-02
-1.5430121e-02
-1.7882380e-02
-2.0689547e-02
-2.3022170e-02
-2.3985370e-02
-2.3646158e-02
-2.3103456e-02
-2.2929851e-02
-2.2404446e-02
-2.0546807e-02
-1.7833989e-02
-1.5087474e-02
-1.1265362e-02
-6.1137710e-03
-8.7575865e-04
3.5952726e-03
6.6303125e-03
8.5586063e-03
1.0015784e-02
1.1040752e-02
1.1651009e-02
1.1949418e-02
1.2405435e-02
1.3138158e-02
1.3724251e-02
1.3803007e-02
1.3459743e-02
1.3147404e-02
1.3044953e-02
1.3513603e-02
1.4726724e-02
1.6122240e-02
1.7230084e-02
1.7673034e-02
1.7120264e-02
1.5296565e-02
1.2291906e-02
8.3267154e-03
3.3692660e-03
-1.4731058e-03
-5.4760172e-03
-9.1077594e-03
-1.2171173e-02
-1.4766338e-02
-1.6933690e-02
-1.8474068e-02
-1.9314667e-02
-1.8788408e-02
-1.7081663e-02
-1.4735193e-02
-1.2327853e-02
-1.0236506e-02
-7.7038513e-03
-4.8383384e-03
-2.0630192e-03
2.8173640e-04
1.6386222e-03
2.6095809e-03
3.6097131e-03
4.5768218e-03
5.0686621e-03
4.7247097e-03
4.3980792e-03
4.5908364e-03
5.6886825e-03
7.4253515e-03
8.6257608e-03
9.1474443e-03
9.2834317e-03
9.1590002e-03
8.4068989e-03
7.0712430e-03
5.7404288e-03
4.6112935e-03
4.2544610e-03
3.9559202e-03
2.8884265e-03
2.1173565e-03
1.6359003e-03
4.5403006e-04
-1.6197811e-03
-3.8465676e-03
-5.6244964e-03
-7.0633509e-03
-7.5713352e-03
-7.3322796e-03
-7.1522698e-03
-6.8413370e-03
-6.4327042e-03
-5.5421475e-03
-4.2538904e-03
-3.4853874e-03
-2.8905036e-03
-1.7238983e-03
1.0755310e-04
1.3980354e-03
1.9455584e-03
3.1796120e-03
4.6831560e-03
5.6732772e-03
6.4116029e-03
7.7465802e-03
1.0131696e-02
1.2732421e-02
1.5038627e-02
1.6630887e-02
1.7511428e-02
1.8055264e-02
1.8001506e-02
1.7567579e-02
1.6526925e-02
1.4152367e-02
1.0582355e-02
6.3825631e-03
2.3145487e-03
-1.2045970e-03
-4.1322421e-03
-6.1961321e-03
-7.3064613e-03
-7.7081297e-03
-8.2990222e-03
-9.7103353e-03
-1.1448850e-02
-1.3223209e-02
-1.4917308e-02
-1.6659758e-02
-1.8824787e-02
-2.1058629e-02
-2.2858443e-02
-2.4070353e-02
-2.5084515e-02
-2.6554828e-02
-2.8433377e-02
-2.9926521e-02
-2.9933212e-02
-2.8375029e-02
-2.5805513e-02
-2.2232936e-02
-1.8658696e-02
-1.6299910e-02
-1.4867932e-02
-1.3912975e-02
-1.3830260e-02
-1.4562708e-02
-1.5060666e-02
-1.5225569e-02
-1.5339707e-02
-1.5239089e-02
-1.5193174e-02
-1.5186977e-02
-1.5319158e-02
-1.6002689e-02
-1.7244214e-02
-1.8835550e-02
-2.0172244e-02
-2.1164161e-02
-2.2192187e-02
-2.3351983e-02
-2.4510403e-02
-2.5254325e-02
-2.5629467e-02
-2.5108423e-02
-2.3425298e-02
-2.1428738e-02
-1.9358994e-02
-1.7485716e-02
-1.5595471e-02
-1.3188071e-02
-1.0794137e-02
-8.9633400e-03
-8.3268840e-03
-9.2448483e-03
-1.1622177e-02
-1.4700466e-02
-1.7140727e-02
-1.8906611e-02
-1.9800054e-02
-1.9195703e-02
-1.7264989e-02
-1.3682779e-02
-8.5427414e-03
-3.1071690e-03
1.6863430e-03
5.6838247e-03
8.9300859e-03
1.1530617e-02
1.3532741e-02
1.4789505e-02
1.5853461e-02
1.7303900e-02
1.8583381e-02
1.9164251e-02
1.8992288e-02
1.8373747e-02
1.8082732e-02
1.8562804e-02
1.9677339e-02
2.0867333e-02
2.1806888e-02
2.2536109e-02
2.2801026e-02
2.2553900e-02
2.1473823e-02
1.9751027e-02
1.8731125e-02
1.8983425e-02
2.0108996e-02
2.1105847e-02
2.1408182e-02
2.1361828e-02
2.0949437e-02
1.9982107e-02
1.8557491e-02
1.7162425e-02
1.6475034e-02
1.6399906e-02
1.6928737e-02
1.7866948e-02
1.8256873e-02
1.8252910e-02
1.8399595e-02
1.8686115e-02
1.8872398e-02
1.8897722e-02
1.8978610e-02
1.8954467e-02
1.8728322e-02
1.8101871e-02
1.6940252e-02
1.5679653e-02
1.4848841e-02
1.4525662e-02
1.3773244e-02
1.2411906e-02
1.1398049e-02
1.0694426e-02
1.0198399e-02
9.7634074e-03
8.8954955e-03
7.8459986e-03
6.9498902e-03
6.6778994e-03
7.2472786e-03
8.4006577e-03
1.0187756e-02
1.3378193e-02
1.8336255e-02
2.3395118e-02
2.7476553e-02
3.0877862e-02
3.3780314e-02
3.6656785e-02
3.9220503e-02
4.0838733e-02
4.1527957e-02
4.1517844e-02
4.1236030e-02
4.0594374e-02
3.9068421e-02
3.5988729e-02
3.0962967e-02
2.3942464e-02
1.3646748e-02
1.1441839e-03
-9.4077836e-03
-1.6892480e-02
-2.2190271e-02
-2.5858647e-02
-2.8284609e-02
-3.0058145e-02
-3.2357339e-02
-3.4614919e-02
-3.5957155e-02
-3.6743175e-02
-3.7331706e-02
-3.7952942e-02
-3.8796176e-02
-4.0110472e-02
-4.1309373e-02
-4.1732839e-02
-4.1698550e-02
-4.0957372e-02
-3.9242043e-02
-3.6887050e-02
-3.3752974e-02
-2.9521602e-02
-2.3846891e-02
-1.6650634e-02
-8.7059588e-03
-1.5655979e-03
3.9863709e-03
8.2913441e-03
1.1103783e-02
1.2726041e-02
1.3873582e-02
1.4191304e-02
1.3741293e-02
1.2804574e-02
1.1570377e-02
1.0143997e-02
8.0401579e-03
5.5919360e-03
3.3866089e-03
1.4608317e-03
-6.8174302e-04
-3.2468543e-03
-5.7725911e-03
-8.9789117e-03
-1.2823553e-02
-1.6060569e-02
-1.7935706e-02
-1.7592678e-02
-1.4518444e-02
-1.0096517e-02
-7.5529920e-03
-7.9336516e-03
-9.4155080e-03
-1.0964700e-02
-1.2743608e-02
-1.4873793e-02
-1.6439196e-02
-1.6026285e-02
-1.3925781e-02
-1.1163322e-02
-8.4360277e-03
-5.9704367e-03
-3.4630324e-03
-9.4135644e-04
1.3232762e-03
2.4325937e-03
2.1723999e-03
1.5850665e-03
1.4909762e-03
1.9062486e-03
2.1119876e-03
2.5843079e-03
4.0272782e-03
6.1334689e-03
8.6468607e-03
1.0463954e-02
1.1284750e-02
1.2358824e-02
1.4207276e-02
1.6300753e-02
1.7715197e-02
1.8125065e-02
1.7690874e-02
1.6161700e-02
1.3869337e-02
1.1612277e-02
9.7082207e-03
8.3719855e-03
7.5799753e-03
7.1418990e-03
6.7671891e-03
6.9653398e-03
8.4493017e-03
1.0761091e-02
1.3522552e-02
1.6114828e-02
1.7798583e-02
1.8218196e-02
1.7051737e-02
1.4745575e-02
1.1800487e-02
8.4345644e-03
5.2470587e-03
2.6455773e-03
9.8012700e-04
4.9055533e-05
-1.0915202e-03
-2.4113796e-03
-3.1927738e-03
-3.1337288e-03
-2.5948453e-03
-2.2017186e-03
-2.4003991e-03
-2.7702197e-03
-2.7482014e-03
-2.7827490e-03
-3.1551789e-03
-3.9747712e-03
-4.8511429e-03
-5.1464240e-03
-5.4488339e-03
-5.9921973e-03
-6.9216863e-03
-8.7561795e-03
-1.0474084e-02
-1.1458581e-02
-1.1872721e-02
-1.1386492e-02
-1.0138595e-02
-8.2183843e-03
-6.2849365e-03
-5.3141395e-03
-5.1341042e-03
-5.2346670e-03
-5.6238745e-03
-6.9510045e-03
-9.3575304e-03
-1.2642490e-02
-1.6333061e-02
-1.9312302e-02
-2.1693410e-02
-2.3863253e-02
-2.5556465e-02
-2.6835918e-02
-2.7748192e-02
-2.8424383e-02
-2.8615775e-02
-2.7372353e-02
-2.4288863e-02
-1.9938786e-02
-1.4935898e-02
-9.2932050e-03
-2.6508082e-03
5.2790303e-03
1.4098304e-02
2.3429349e-02
3.3337650e-02
4.2333072e-02
4.8117816e-02
4.9901560e-02
4.8022696e-02
4.3018534e-02
3.5390123e-02
2.6747350e-02
1.9563763e-02
1.4904501e-02
1.3038821e-02
1.3884458e-02
1.6086561e-02
1.8193275e-02
1.9221422e-02
1.8726287e-02
1.6550830e-02
1.2724321e-02
8.1667458e-03
3.8253949e-03
3.2911029e-04
-2.5618469e-03
-5.5379845e-03
-8.1314408e-03
-1.0019573e-02
-1.1011235e-02
-1.0517566e-02
-8.9011990e-03
-7.0511395e-03
-5.5486792e-03
-4.8144334e-03
-5.9121572e-03
-9.4456893e-03
-1.4397721e-02
-1.9803436e-02
-2.4186097e-02
-2.5811488e-02
-2.4331674e-02
-2.0870314e-02
-1.7209972e-02
-1.3802552e-02
-1.0925912e-02
-9.5932716e-03
-9.6373251e-03
-9.5631126e-03
-7.9843404e-03
-4.6055405e-03
-8.3973576e-05
4.6665806e-03
9.5101181e-03
1.4642734e-02
1.9141251e-02
2.2190591e-02
2.3436357e-02
2.2661851e-02
2.0818612e-02
1.7889090e-02
1.3134691e-02
7.3282502e-03
1.5032750e-03
-4.0262546e-03
-9.5748173e-03
-1.4633301e-02
-1.7765686e-02
-1.7995254e-02
-1.5012682e-02
-1.0097063e-02
-5.3060996e-03
-2.0790279e-03
-5.3550658e-04
4.0189449e-04
9.8095752e-04
1.5330765e-03
2.8128828e-03
4.8570814e-03
7.2906798e-03
8.9849151e-03
8.7987528e-03
6.1821223e-03
1.4003684e-03
-4.2488712e-03
-9.8930174e-03
-1.4939129e-02
-1.8313212e-02
-1.9240342e-02
-1.7651796e-02
-1.4647059e-02
-1.1039985e-02
-6.9653702e-03
-2.8221103e-03
1.7170418e-03
6.8388416e-03
1.2655695e-02
1.8725409e-02
2.3528818e-02
2.6621470e-02
2.7941493e-02
2.7860279e-02
2.7008800e-02
2.5433212e-02
2.3353635e-02
2.0700485e-02
1.7877944e-02
1.5144005e-02
1.2211531e-02
9.1503478e-03
5.9647967e-03
3.0340319e-03
5.0821918e-04
-2.0224407e-03
-4.8380812e-03
-8.0431387e-03
-1.1185532e-02
-1.3655247e-02
-1.5020019e-02
-1.4637568e-02
-1.2783401e-02
-1.0705707e-02
-9.0261718e-03
-7.2374321e-03
-4.9284614e-03
-2.7678281e-03
-1.2749233e-03
-3.8095416e-04
-3.3547672e-05
-2.8674900e-04
-5.6866680e-04
-1.8476052e-04
3.8374095e-04
9.8460376e-04
2.0434163e-03
3.4212780e-03
4.9699242e-03
6.1258934e-03
6.5363281e-03
6.8066671e-03
7.0541697e-03
7.2878492e-03
7.4992124e-03
7.4965880e-03
7.2583134e-03
6.5461348e-03
5.1071546e-03
2.6365558e-03
-1.9450483e-04
-2.5903255e-03
-4.9070108e-03
-7.1980223e-03
-9.2202472e-03
-1.0702509e-02
-1.1586276e-02
-1.1933957e-02
-1.1623037e-02
-1.0960913e-02
-1.0004018e-02
-8.7197933e-03
-7.3819357e-03
-5.7744881e-03
-3.6603507e-03
-1.1595337e-03
1.3578396e-03
3.6384071e-03
5.9472773e-03
8.0852552e-03
9.7522372e-03
1.0799673e-02
1.0831453e-02
9.8802617e-03
8.1191582e-03
6.3288897e-03
4.9821883e-03
3.3381855e-03
1.3553678e-03
-4.6236625e-04
-2.0199865e-03
-3.4114699e-03
-4.7213750e-03
-5.3622612e-03
-5.2942124e-03
-5.5559142e-03
-6.4860423e-03
-7.8546380e-03
-9.3903329e-03
-1.1097865e-02
-1.3229700e-02
-1.5663068e-02
-1.8072935e-02
-2.0250531e-02
-2.2180371e-02
-2.3553624e-02
-2.4003890e-02
-2.3356696e-02
-2.0707568e-02
-1.6258209e-02
-1.1866276e-02
-8.4716769e-03
-5.8153018e-03
-3.4923330e-03
-1.2035547e-03
2.0585475e-03
6.1707043e-03
1.0083707e-02
1.4284853e-02
1.8650344e-02
2.2390722e-02
2.5404890e-02
2.7661983e-02
2.9517874e-02
3.1474483e-02
3.3542930e-02
3.5092382e-02
3.5755183e-02
3.5782389e-02
3.4975795e-02
3.3108713e-02
2.9991864e-02
2.5040769e-02
1.7524341e-02
8.6536421e-03
1.7818032e-03
-2.6829576e-03
-6.1941723e-03
-8.6472239e-03
-1.0268145e-02
-1.1497078e-02
-1.2527771e-02
-1.3299957e-02
-1.3907066e-02
-1.5147915e-02
-1.6947669e-02
-1.9125780e-02
-2.1874566e-02
-2.5207565e-02
-2.8983537e-02
-3.2436733e-02
-3.5552619e-02
-3.8644367e-02
-4.1073232e-02
-4.2083855e-02
-4.1524072e-02
-3.9801276e-02
-3.6788058e-02
-3.1616529e-02
-2.4614918e-02
-1.7414401e-02
-1.1028689e-02
-5.7625078e-03
-1.7505351e-03
1.5522550e-03
4.9280968e-03
7.7704360e-03
9.5258438e-03
1.1400006e-02
1.4116108e-02
1.7167581e-02
2.0662498e-02
2.5302529e-02
3.0502746e-02
3.4823878e-02
3.8011947e-02
3.9742948e-02
3.9155760e-02
3.5798900e-02
2.9889758e-02
2.3274599e-02
1.6989317e-02
1.0313739e-02
2.7625416e-03
-5.3842620e-03
-1.3071325e-02
-1.9827932e-02
-2.5653195e-02
-2.9619138e-02
-3.0721818e-02
-2.8521188e-02
-2.3216098e-02
-1.6222584e-02
-9.6308058e-03
-5.4184587e-03
-4.3133687e-03
-5.6014078e-03
-7.6729642e-03
-9.4490113e-03
-1.1232239e-02
-1.2463748e-02
-1.2355266e-02
-1.0664268e-02
-7.6133897e-03
-4.3031813e-03
-1.1064713e-03
1.8692622e-03
4.7136714e-03
7.9553993e-03
1.2030997e-02
1.7223998e-02
2.2832573e-02
2.8118207e-02
3.2093249e-02
3.3318773e-02
3.1343778e-02
2.5902931e-02
1.7759903e-02
8.5293311e-03
-1.6964916e-04
-6.3100880e-03
-9.1451032e-03
-9.0176114e-03
-6.5827588e-03
-2.7885929e-03
1.2952530e-03
4.2042271e-03
5.5445497e-03
6.0233236e-03
5.6594619e-03
4.7436752e-03
3.6787260e-03
2.5176187e-03
5.9422855e-04
-3.2821558e-03
-8.5144277e-03
-1.3663403e-02
-1.7969776e-02
-2.1390522e-02
-2.3880631e-02
-2.4792842e-02
-2.4352317e-02
-2.3486181e-02
-2.2755183e-02
-2.2252903e-02
-2.1611198e-02
-2.0376867e-02
-1.8100122e-02
-1.5659863e-02
-1.4095169e-02
-1.2966586e-02
-1.2268705e-02
-1.2799543e-02
-1.5056141e-02
-1.7480892e-02
-1.8038651e-02
-1.6582568e-02
-1.2737036e-02
-6.7253077e-03
7.2490376e-04
9.5456105e-03
1.8778969e-02
2.7624637e-02
3.5259398e-02
4.0997563e-02
4.4974271e-02
4.7033430e-02
4.7679892e-02
4.7390025e-02
4.6433160e-02
4.5825859e-02
4.5647376e-02
4.5039693e-02
4.2614288e-02
3.7260769e-02
2.9308759e-02
1.9432088e-02
8.5679090e-03
-1.9666940e-03
-1.0740342e-02
-1.6681915e-02
-1.9340197e-02
-1.8843567e-02
-1.6947768e-02
-1.4809988e-02
-1.2702760e-02
-1.1723088e-02
-1.1743455e-02
-1.2835173e-02
-1.5656697e-02
-1.9921785e-02
-2.5054599e-02
-2.9488437e-02
-3.2257681e-02
-3.3522705e-02
-3.3199381e-02
-3.1287217e-02
-2.7884809e-02
-2.3364586e-02
-1.8236259e-02
-1.3031717e-02
-7.7746413e-03
-2.7637497e-03
4.7948216e-04
1.1545942e-03
-6.7843561e-04
-4.4760499e-03
-8.5270404e-03
-1.0838167e-02
-1.0218470e-02
-7.0760692e-03
-2.9169231e-03
1.6677453e-03
6.9793700e-03
1.2829195e-02
1.8158611e-02
2.2051564e-02
2.4487601e-02
2.5712804e-02
2.6095481e-02
2.5467600e-02
2.3568806e-02
2.0820890e-02
1.7210838e-02
1.2217842e-02
5.3984902e-03
-3.1568849e-03
-1.2308599e-02
-2.0646455e-02
-2.7063518e-02
-3.1191053e-02
-3.3415844e-02
-3.3529740e-02
-3.0956250e-02
-2.6387379e-02
-2.1777877e-02
-1.7620282e-02
-1.2848851e-02
-7.3080776e-03
-1.4612839e-03
4.3506389e-03
1.0086169e-02
1.6032606e-02
2.1939478e-02
2.7403988e-02
3.2196273e-02
3.6172545e-02
3.9183704e-02
4.0701511e-02
4.0589302e-02
3.9182817e-02
3.7189697e-02
3.4643492e-02
3.1048017e-02
2.7425895e-02
2.4029665e-02
2.0121612e-02
1.5438936e-02
8.7045081e-03
6.3527415e-04
-6.0680623e-03
-1.0372690e-02
-1.2254241e-02
-1.2541637e-02
-1.2292139e-02
-1.1754117e-02
-1.1062378e-02
-1.0732040e-02
-1.0939373e-02
-1.0783480e-02
-1.0345325e-02
-1.0422805e-02
-1.0494398e-02
-9.9178247e-03
-8.7804668e-03
-7.7707594e-03
-7.1335840e-03
-6.3221706e-03
-5.1964357e-03
-3.8889915e-03
-2.5873730e-03
-1.3677920e-03
-3.4760179e-04
-2.1614758e-04
-4.8720012e-04
-3.4290790e-04
-1.3006299e-04
1.9727934e-04
9.5318650e-04
2.0856701e-03
3.3320079e-03
4.5717871e-03
5.3996547e-03
5.6127975e-03
5.8146825e-03
5.8613548e-03
5.1816972e-03
4.0507880e-03
2.4325605e-03
-2.0492252e-04
-4.1207269e-03
-9.5631433e-03
-1.6382851e-02
-2.3905034e-02
-3.0776567e-02
-3.5339032e-02
-3.6609366e-02
-3.4368179e-02
-2.8048002e-02
-1.7225782e-02
-4.0425054e-03
8.8819772e-03
2.0251883e-02
2.9464391e-02
3.7086947e-02
4.3026993e-02
4.6667782e-02
4.7596606e-02
4.5135016e-02
3.9953962e-02
3.2967584e-02
2.4731412e-02
1.6339065e-02
8.7897432e-03
3.5706488e-03
1.7341875e-03
2.9255280e-03
6.4533261e-03
1.1664522e-02
1.7852962e-02
2.3957204e-02
2.8851712e-02
3.1268144e-02
2.9502312e-02
2.3687069e-02
1.5867701e-02
7.2747874e-03
-1.6092029e-03
-1.0082238e-02
-1.7315167e-02
-2.3250375e-02
-2.8238920e-02
-3.2536137e-02
-3.6520127e-02
-4.0394601e-02
-4.4706002e-02
-4.9656423e-02
-5.4618785e-02
-5.8667902e-02
-6.1612311e-02
-6.4698365e-02
-6.8339433e-02
-7.2006526e-02
-7.5178672e-02
-7.6574866e-02
-7.5163103e-02
-7.0072958e-02
-6.0586011e-02
-4.5816518e-02
-2.7697797e-02
-1.1438884e-02
1.3441287e-03
1.1237402e-02
1.8945214e-02
2.5457198e-02
3.0471385e-02
3.4156245e-02
3.7010005e-02
3.8989875e-02
4.0127522e-02
4.0636326e-02
4.1380881e-02
4.2899940e-02
4.4665174e-02
4.6524056e-02
4.8400582e-02
5.0186731e-02
5.1305858e-02
5.0176541e-02
4.6238615e-02
3.9968051e-02
3.1689694e-02
2.1362410e-02
9.2667340e-03
-2.4534799e-03
-1.0873470e-02
-1.4675857e-02
-1.4545153e-02
-1.1875764e-02
-7.9969750e-03
-4.1953536e-03
-1.0171919e-03
9.1708348e-04
9.2418764e-04
-8.1574647e-04
-4.1537129e-03
-8.8981157e-03
-1.4691985e-02
-2.0833541e-02
-2.6691895e-02
-3.1993110e-02
-3.5510839e-02
-3.6557904e-02
-3.5813137e-02
-3.3611676e-02
-2.9694129e-02
-2.4268952e-02
-1.7894042e-02
-1.0501768e-02
-2.9629348e-03
2.9935765e-03
7.4325351e-03
1.1016651e-02
1.3340386e-02
1.4196080e-02
1.4075793e-02
1.3072212e-02
1.0585011e-02
7.1352742e-03
4.0862876e-03
2.1690288e-03
1.9228391e-03
3.3636403e-03
5.7669294e-03
8.3608180e-03
1.0737961e-02
1.2716065e-02
1.3783316e-02
1.4196738e-02
1.4599421e-02
1.4328309e-02
1.2961800e-02
1.0572696e-02
7.6454825e-03
4.9279390e-03
2.0264965e-03
-1.4519152e-03
-5.1875475e-03
-8.3161431e-03
-1.0351587e-02
-1.1698337e-02
-1.2146495e-02
-1.1427830e-02
-1.0047672e-02
-8.0293208e-03
-5.2729104e-03
-1.9695989e-03
1.4961878e-03
4.8410856e-03
8.3247662e-03
1.1889346e-02
1.5253621e-02
1.8518211e-02
2.2251640e-02
2.5729940e-02
2.7894808e-02
2.9517689e-02
3.1130579e-02
3.2297616e-02
3.2426266e-02
3.1876502e-02
3.1827697e-02
3.2310348e-02
3.3053407e-02
3.3729971e-02
3.4008015e-02
3.4314856e-02
3.4283164e-02
3.3787754e-02
3.3317559e-02
3.2662908e-02
3.1467373e-02
2.9334328e-02
2.6576029e-02
2.3297977e-02
1.9231213e-02
1.5255478e-02
1.1500050e-02
7.5127084e-03
3.3236480e-03
-7.4535204e-04
-4.0660747e-03
-6.9779083e-03
-9.9692222e-03
-1.3426299e-02
-1.7275399e-02
-2.0544480e-02
-2.2823937e-02
-2.3623012e-02
-2.2969046e-02
-2.1766660e-02
-2.0290876e-02
-1.8585775e-02
-1.6788684e-02
-1.5199503e-02
-1.4025094e-02
-1.2983087e-02
-1.1814291e-02
-1.0090327e-02
-8.2669030e-03
-7.3846496e-03
-6.9322371e-03
-6.2626934e-03
-5.4987590e-03
-4.9760687e-03
-4.8332620e-03
-4.9013086e-03
-5.2057620e-03
-5.3381676e-03
-5.4668405e-03
-6.3591445e-03
-7.9288097e-03
-9.8868882e-03
-1.2128974e-02
-1.5229132e-02
-1.9349283e-02
-2.3598682e-02
-2.7505730e-02
-3.0331713e-02
-3.1971190e-02
-3.3255019e-02
-3.4101320e-02
-3.4370779e-02
-3.3826573e-02
-3.2600012e-02
-3.1252449e-02
-2.9261989e-02
-2.6066765e-02
-2.1862261e-02
-1.7773993e-02
-1.4511210e-02
-1.2176170e-02
-1.1248088e-02
-1.1775727e-02
-1.3576713e-02
-1.5986243e-02
-1.7727624e-02
-1.8210402e-02
-1.7651108e-02
-1.6449414e-02
-1.4965300e-02
-1.3122158e-02
-1.1366017e-02
-1.0348197e-02
-1.0274832e-02
-1.0554029e-02
-1.0094007e-02
-9.0415881e-03
-7.7510859e-03
-6.5654171e-03
-6.3482128e-03
-7.0865585e-03
-8.0538255e-03
-8.7948151e-03
-9.2060403e-03
-9.5624377e-03
-1.0015065e-02
-1.0291315e-02
-9.6713076e-03
-8.3140409e-03
-7.3442012e-03
-6.7822293e-03
-5.6150964e-03
-2.9051192e-03
1.1302239e-03
5.4580452e-03
9.3632264e-03
1.2697448e-02
1.6039327e-02
1.9627283e-02
2.2879809e-02
2.5426650e-02
2.7431834e-02
2.9268189e-02
3.0574449e-02
3.1182644e-02
3.2076555e-02
3.3573346e-02
3.4974888e-02
3.5540717e-02
3.5844974e-02
3.6295137e-02
3.5735542e-02
3.3534712e-02
3.0075651e-02
2.6715301e-02
2.4146204e-02
2.2068613e-02
2.0520652e-02
1.9133607e-02
1.7685678e-02
1.6263103e-02
1.4792938e-02
1.3163276e-02
1.0703083e-02
7.4646222e-03
3.9546716e-03
1.1722255e-04
-3.3656223e-03
-5.8415966e-03
-7.3648495e-03
-8.2862086e-03
-8.9212932e-03
-8.9533823e-03
-7.8557043e-03
-5.6646126e-03
-3.1239889e-03
-7.0985257e-04
1.3031677e-03
2.5599403e-03
3.5831187e-03
4.4713335e-03
5.0882243e-03
6.0332928e-03
7.1471008e-03
8.3645307e-03
9.6020506e-03
1.0091424e-02
9.7046078e-03
7.8843334e-03
4.5119577e-03
5.2956323e-04
-3.6112714e-03
-7.0358750e-03
-9.4007444e-03
-1.1292220e-02
-1.2963390e-02
-1.3754007e-02
-1.2947885e-02
-1.1571064e-02
-1.0422417e-02
-9.3090362e-03
-7.9519903e-03
-5.4219665e-03
-2.1539223e-03
2.3346898e-04
1.2505416e-03
1.2643609e-03
9.0380495e-04
-6.0088200e-05
-2.1509315e-03
-5.0455620e-03
-8.0085774e-03
-1.0445160e-02
-1.2833392e-02
-1.5367929e-02
-1.7479699e-02
-1.9126574e-02
-2.0310787e-02
-2.1200077e-02
-2.1893866e-02
-2.2459266e-02
-2.3158053e-02
-2.3565348e-02
-2.3655528e-02
-2.3453148e-02
-2.2467384e-02
-2.0399632e-02
-1.6333263e-02
-1.0355728e-02
-3.8365789e-03
2.0663149e-03
7.0583152e-03
1.1656566e-02
1.5395172e-02
1.8269599e-02
2.0664803e-02
2.1852442e-02
2.1862754e-02
2.0869179e-02
1.8519157e-02
1.4950299e-02
1.0730350e-02
6.1924366e-03
1.6299683e-03
-2.3644535e-03
-6.1517017e-03
-1.0042022e-02
-1.3346967e-02
-1.6120058e-02
-1.8396983e-02
-1.9641598e-02
-1.9226700e-02
-1.5966239e-02
-1.0352522e-02
-4.6078270e-03
-2.0589283e-05
3.3822134e-03
6.0644853e-03
7.7121278e-03
7.9314582e-03
6.5669506e-03
4.3011248e-03
2.7317487e-03
1.7627983e-03
9.1681689e-04
2.2973977e-04
-3.1968342e-04
-5.8721013e-04
-1.0612126e-03
-1.8069289e-03
-2.6663556e-03
-3.6561706e-03
-4.3794275e-03
-4.7545996e-03
-4.7984955e-03
-4.5805966e-03
-3.3105550e-03
4.5817975e-04
5.5803769e-03
9.2558904e-03
1.0545405e-02
9.8981590e-03
7.7118032e-03
4.1852812e-03
-2.8101949e-04
-5.4045600e-03
-1.1563285e-02
-1.8526895e-02
-2.5324143e-02
-3.1071299e-02
-3.5466272e-02
-3.8530354e-02
-3.9842863e-02
-3.9342768e-02
-3.7600709e-02
-3.5387896e-02
-3.3018005e-02
-2.9900447e-02
-2.4924604e-02
-1.7658041e-02
-9.0131224e-03
2.8934373e-04
9.5722868e-03
1.7559448e-02
2.4127210e-02
2.9573188e-02
3.4027917e-02
3.8169081e-02
4.1525974e-02
4.3142826e-02
4.2606979e-02
3.9993398e-02
3.6266798e-02
3.2315784e-02
2.9087532e-02
2.6770041e-02
2.4962454e-02
2.3860292e-02
2.3130213e-02
2.2394478e-02
2.1466761e-02
2.0235019e-02
1.8820700e-02
1.7272039e-02
1.5414127e-02
1.2639225e-02
9.0115382e-03
4.9141096e-03
3.5068906e-04
-3.9223129e-03
-7.5376753e-03
-1.0727433e-02
-1.2877658e-02
-1.3337555e-02
-1.2189621e-02
-1.0709602e-02
-9.9945395e-03
-9.6824766e-03
-9.4373832e-03
-8.8876096e-03
-8.0582293e-03
-7.4841094e-03
-6.9076412e-03
-6.5019317e-03
-6.4986475e-03
-6.9639367e-03
-8.1842532e-03
-9.5123008e-03
-1.0373110e-02
-1.0837667e-02
-1.1378506e-02
-1.1648721e-02
-1.0809805e-02
-9.2879679e-03
-7.0520037e-03
-4.1091688e-03
-6.4460829e-04
3.7071921e-03
8.0304470e-03
1.2010648e-02
1.6214158e-02
2.0532614e-02
2.4786765e-02
2.8954448e-02
3.3636852e-02
3.8558951e-02
4.3340012e-02
4.8424550e-02
5.3056486e-02
5.5980939e-02
5.6059811e-02
5.3529222e-02
4.9527194e-02
4.3451756e-02
3.3941180e-02
1.9706113e-02
9.1411572e-04
-2.0189958e-02
-4.0319254e-02
-5.5477934e-02
-6.3814709e-02
-6.6346588e-02
-6.5207672e-02
-6.2898360e-02
-6.0615816e-02
-5.8312777e-02
-5.5467227e-02
-5.1492072e-02
-4.5706020e-02
-3.6915069e-02
-2.5280326e-02
-1.2047331e-02
1.0666515e-03
1.1822670e-02
1.9385671e-02
2.3101237e-02
2.2623091e-02
1.8771060e-02
1.2278616e-02
5.0715765e-03
-9.5178841e-04
-4.9518703e-03
-6.5597451e-03
-7.2119170e-03
-8.4681376e-03
-1.0392675e-02
-1.1828335e-02
-1.1651976e-02
-9.3672094e-03
-3.9263910e-03
4.3430496e-03
1.4422436e-02
2.6334460e-02
3.8546184e-02
4.8405579e-02
5.4291612e-02
5.5531168e-02
5.1981382e-02
4.4645000e-02
3.5640039e-02
2.6053316e-02
1.6193176e-02
6.2723547e-03
-3.8804025e-03
-1.3800496e-02
-2.3582126e-02
-3.4056877e-02
-4.6077902e-02
-5.9737147e-02
-7.2422591e-02
-8.1566987e-02
-8.6392487e-02
-8.6535332e-02
-8.1831934e-02
-7.1460586e-02
-5.5334226e-02
-3.5096465e-02
-1.3156205e-02
7.7682091e-03
2.5488498e-02
3.8162580e-02
4.4766754e-02
4.5359030e-02
4.0287792e-02
3.0512644e-02
1.7477695e-02
3.7385042e-03
-7.7448689e-03
-1.5686547e-02
-2.0025858e-02
-2.0876919e-02
-1.7686432e-02
-9.9780315e-03
1.9178410e-04
9.0818047e-03
1.4632339e-02
1.7397121e-02
1.8466663e-02
1.8513571e-02
1.8454763e-02
1.8095723e-02
1.7502940e-02
1.7836865e-02
1.9067189e-02
2.0667204e-02
2.2089618e-02
2.3330410e-02
2.4661419e-02
2.5888504e-02
2.7044180e-02
2.7707527e-02
2.7842953e-02
2.7946334e-02
2.7781742e-02
2.7367356e-02
2.6814273e-02
2.5520999e-02
2.2896425e-02
1.9346550e-02
1.6088592e-02
1.3507130e-02
1.1755990e-02
1.1337062e-02
1.1858674e-02
1.3177723e-02
1.5252015e-02
1.7757116e-02
2.0833910e-02
2.3970774e-02
2.6286133e-02
2.6976987e-02
2.6092607e-02
2.4271045e-02
2.1216144e-02
1.6428218e-02
9.6741333e-03
1.9635549e-03
-5.3130661e-03
-1.1882338e-02
-1.7671364e-02
-2.2810261e-02
-2.6689235e-02
-2.8183566e-02
-2.7694394e-02
-2.6170372e-02
-2.3686905e-02
-2.0360164e-02
-1.6906422e-02
-1.3512617e-02
-9.8005898e-03
-6.4231014e-03
-4.4030558e-03
-4.0634603e-03
-4.9042087e-03
-5.9852199e-03
-7.3147180e-03
-9.3680547e-03
-1.2462596e-02
-1.6337863e-02
-2.0380835e-02
-2.4976776e-02
-2.9906669e-02
-3.3878055e-02
-3.6287339e-02
-3.6572971e-02
-3.4674249e-02
-3.0934619e-02
-2.5112625e-02
-1.8064161e-02
-1.1422627e-02
-5.7715375e-03
-9.9736089e-04
2.6897775e-03
5.3261538e-03
7.4221004e-03
9.1822086e-03
1.1057694e-02
1.3248479e-02
1.5833191e-02
1.9099782e-02
2.2109084e-02
2.4656619e-02
2.7258970e-02
2.9618487e-02
3.1762527e-02
3.2620956e-02
3.1390726e-02
2.8991709e-02
2.5489746e-02
2.0329266e-02
1.3565396e-02
5.3593325e-03
-4.9550071e-03
-1.6657579e-02
-2.6703740e-02
-3.3950534e-02
-3.9053834e-02
-4.2689276e-02
-4.5096036e-02
-4.5568035e-02
-4.4521516e-02
-4.2535544e-02
-3.9423063e-02
-3.5122482e-02
-2.9843518e-02
-2.4373547e-02
-1.9382007e-02
-1.5334239e-02
-1.1847809e-02
-8.2613180e-03
-4.7899536e-03
-1.2196627e-03
2.5303338e-03
5.9336563e-03
9.0018777e-03
1.1306442e-02
1.2144935e-02
1.1377884e-02
9.3773846e-03
7.4032008e-03
6.2891757e-03
6.1982112e-03
7.0349028e-03
8.3329998e-03
1.0039235e-02
1.2017026e-02
1.4015088e-02
1.5869114e-02
1.7356499e-02
1.8908665e-02
2.0772567e-02
2.2770901e-02
2.4746125e-02
2.6374385e-02
2.7484883e-02
2.7679299e-02
2.7295949e-02
2.7069773e-02
2.6821922e-02
2.6460385e-02
2.5982474e-02
2.4612310e-02
2.0915185e-02
1.5285935e-02
9.7279578e-03
4.7889329e-03
6.7202757e-05
-5.4656478e-03
-1.1979972e-02
-1.7868391e-02
-2.2227523e-02
-2.5070708e-02
-2.7064678e-02
-2.8893675e-02
-3.0623777e-02
-3.1870448e-02
-3.1887285e-02
-3.0845672e-02
-2.8906641e-02
-2.5663192e-02
-2.1766050e-02
-1.7993872e-02
-1.4426965e-02
-1.0589945e-02
-6.1430852e-03
-1.6526408e-03
2.6155059e-03
6.3766810e-03
9.1772529e-03
1.0987001e-02
1.1862728e-02
1.2142494e-02
1.1783169e-02
1.0956454e-02
1.0105275e-02
8.9562918e-03
7.6087291e-03
6.2451569e-03
4.7443032e-03
3.0592982e-03
5.9047372e-04
-2.3027050e-03
-4.4675236e-03
-6.1384377e-03
-7.7132149e-03
-9.1009470e-03
-1.0145966e-02
-1.0688447e-02
-1.0749994e-02
-1.0638490e-02
-1.0730514e-02
-1.0627597e-02
-1.0118969e-02
-9.7680747e-03
-9.9443765e-03
-1.0333257e-02
-9.9900345e-03
-8.8570718e-03
-7.5351135e-03
-5.7878179e-03
-3.5093548e-03
-1.1315854e-03
1.1788229e-03
3.6707905e-03
6.4809763e-03
9.4699965e-03
1.2290330e-02
1.4740858e-02
1.7554566e-02
2.1146944e-02
2.4698368e-02
2.7640719e-02
2.9541139e-02
2.9925353e-02
2.8915378e-02
2.6425374e-02
2.2007780e-02
1.5040908e-02
6.2549632e-03
-1.7803818e-03
-7.9340565e-03
-1.2950401e-02
-1.7559473e-02
-2.1545120e-02
-2.4682351e-02
-2.7796369e-02
-3.0761220e-02
-3.3090237e-02
-3.4737465e-02
-3.5520544e-02
-3.5837366e-02
-3.5665911e-02
-3.5039471e-02
-3.4101041e-02
-3.2671197e-02
-3.1112854e-02
-2.9214028e-02
-2.6643688e-02
-2.3377724e-02
-1.9047672e-02
-1.3855379e-02
-7.5328852e-03
9.6507754e-04
1.0504577e-02
1.8258304e-02
2.3563080e-02
2.7710421e-02
3.0718535e-02
3.1958155e-02
3.2021920e-02
3.1519524e-02
3.0467126e-02
2.8286368e-02
2.5160164e-02
2.2254608e-02
1.9317907e-02
1.5738800e-02
1.1953242e-02
8.8627305e-03
6.4555858e-03
3.9684301e-03
1.6436836e-03
-7.4464953e-05
-1.1801942e-03
-2.1627205e-03
-3.1138254e-03
-2.4887957e-03
6.2373512e-05
3.3358350e-03
6.8377120e-03
1.0433718e-02
1.4756950e-02
1.9677642e-02
2.4122909e-02
2.7558873e-02
2.9399345e-02
3.0226548e-02
3.0259657e-02
2.8442135e-02
2.4307487e-02
1.8442819e-02
1.1963828e-02
5.2648912e-03
-1.1248522e-03
-6.5526121e-03
-1.1043971e-02
-1.4409921e-02
-1.6694725e-02
-1.8323120e-02
-1.9136043e-02
-1.8861842e-02
-1.6899156e-02
-1.2566643e-02
-7.0256457e-03
-2.6208595e-03
-2.9215042e-04
5.3368999e-04
2.6114083e-05
-1.8505711e-03
-5.1627594e-03
-9.6942520e-03
-1.3983575e-02
-1.7314036e-02
-2.0186956e-02
-2.3049996e-02
-2.5600906e-02
-2.7197173e-02
-2.8058507e-02
-2.8382451e-02
-2.8362798e-02
-2.8162531e-02
-2.6943026e-02
-2.4407393e-02
-2.0947187e-02
-1.6762394e-02
-1.2353555e-02
-8.0034676e-03
-3.6433674e-03
3.6485241e-04
3.4137948e-03
5.2049403e-03
6.1668164e-03
7.7420589e-03
1.0898059e-02
1.4477642e-02
1.6895010e-02
1.8419878e-02
1.9481436e-02
1.9847338e-02
1.9435462e-02
1.8258359e-02
1.6920863e-02
1.5290824e-02
1.2803950e-02
9.8403314e-03
7.0232391e-03
4.6774863e-03
2.3069836e-03
-1.9651828e-05
-1.4334412e-03
-1.6905611e-03
-6.4923572e-04
1.0660826e-03
2.7958022e-03
4.9202166e-03
7.7522983e-03
1.1231087e-02
1.4525032e-02
1.7184594e-02
1.8802565e-02
1.9020503e-02
1.8540137e-02
1.7558243e-02
1.6154715e-02
1.4512889e-02
1.2811282e-02
1.1461891e-02
1.0294823e-02
8.9746969e-03
7.7893750e-03
7.5436868e-03
8.4012133e-03
9.7241201e-03
1.1184175e-02
1.1494937e-02
9.4990703e-03
6.4210713e-03
2.6191375e-03
-1.8377868e-03
-5.2712595e-03
-7.0986109e-03
-7.6053557e-03
-6.9043421e-03
-5.4428881e-03
-4.7160957e-03
-5.7388863e-03
-7.5578769e-03
-9.3576675e-03
-1.0934520e-02
-1.2074847e-02
-1.2617906e-02
-1.2494944e-02
-1.2656768e-02
-1.3764429e-02
-1.5306084e-02
-1.6775004e-02
-1.7582245e-02
-1.7493060e-02
-1.6521324e-02
-1.4924003e-02
-1.3027211e-02
-1.0847477e-02
-9.0428456e-03
-7.5425835e-03
-5.6356706e-03
-3.0702669e-03
5.0597131e-04
4.7042727e-03
8.7029832e-03
1.1528954e-02
1.3114258e-02
1.4511461e-02
1.5744698e-02
1.6507622e-02
1.6818899e-02
1.7158190e-02
1.7943954e-02
1.7946270e-02
1.6173655e-02
1.3142971e-02
9.7806762e-03
6.8767307e-03
4.4114041e-03
2.1920474e-03
1.2932104e-04
-1.6616234e-03
-3.0761121e-03
-4.7548447e-03
-6.4885284e-03
-7.8211668e-03
-9.1083446e-03
-1.0639544e-02
-1.2452870e-02
-1.4152069e-02
-1.5962573e-02
-1.7972579e-02
-1.9285218e-02
-1.9402530e-02
-1.8144620e-02
-1.6043934e-02
-1.3662516e-02
-1.0843570e-02
-7.9995115e-03
-5.6405965e-03
-4.0104165e-03
-3.3048701e-03
-3.5771585e-03
-4.5001372e-03
-5.3213822e-03
-6.3116070e-03
-7.6494511e-03
-8.4279066e-03
-8.0994506e-03
-6.8021015e-03
-5.6703545e-03
-5.4157073e-03
-5.7622809e-03
-6.5545527e-03
-7.1093777e-03
-7.2071211e-03
-7.4925126e-03
-7.8429266e-03
-7.8153380e-03
-7.2293368e-03
-6.1050572e-03
-4.3921807e-03
-2.2324538e-03
1.3411961e-04
3.3899440e-03
7.5475140e-03
1.2040882e-02
1.6639709e-02
2.0809542e-02
2.4530134e-02
2.7585722e-02
2.9323715e-02
2.9160271e-02
2.6636780e-02
2.2946735e-02
1.9655093e-02
1.6861431e-02
1.4012036e-02
1.0901676e-02
7.8823840e-03
4.8517806e-03
2.0375194e-03
2.7735768e-04
-1.9688642e-04
8.3473972e-04
3.0721172e-03
5.6050600e-03
7.8133457e-03
9.1050058e-03
9.7681916e-03
1.0411373e-02
1.0782224e-02
1.0381674e-02
9.4380684e-03
8.6794826e-03
7.6926727e-03
5.7086215e-03
2.7284945e-03
-1.2050476e-03
-5.6447927e-03
-9.5734945e-03
-1.2160871e-02
-1.3470111e-02
-1.4113746e-02
-1.4779922e-02
-1.6308078e-02
-1.8401824e-02
-2.0630832e-02
-2.2977777e-02
-2.4243547e-02
-2.3858632e-02
-2.2425681e-02
-2.0520030e-02
-1.8348855e-02
-1.5340482e-02
-1.1741451e-02
-8.3777484e-03
-5.5467901e-03
-3.4691367e-03
-1.7275809e-03
-3.4463132e-04
4.6192718e-04
1.0165125e-03
1.3500377e-03
1.5798541e-03
1.0101536e-03
-7.1090702e-04
-2.5781952e-03
-3.9296691e-03
-4.2878257e-03
-3.7606209e-03
-2.6743547e-03
-1.3497914e-03
-5.2301074e-04
-2.4867209e-05
4.3101899e-04
1.1803751e-03
2.4403885e-03
3.8523260e-03
6.0283303e-03
8.8807686e-03
1.1766563e-02
1.4842394e-02
1.7479451e-02
1.9166076e-02
1.9824773e-02
1.9217895e-02
1.7106908e-02
1.3386151e-02
9.1763043e-03
5.4989723e-03
2.3715026e-03
-3.6782840e-04
-2.9434010e-03
-5.1598915e-03
-7.1338716e-03
-9.3060692e-03
-1.1385565e-02
-1.2759514e-02
-1.3638490e-02
-1.5210466e-02
-1.7475555e-02
-1.9364446e-02
-2.0496459e-02
-2.0646064e-02
-1.9893318e-02
-1.8385771e-02
-1.6307442e-02
-1.4353322e-02
-1.2670950e-02
-1.0521350e-02
-7.1639283e-03
-2.9105312e-03
1.6540328e-03
5.7726689e-03
8.0745364e-03
9.0839890e-03
9.6853710e-03
9.7609777e-03
1.0156352e-02
1.0891307e-02
1.1708299e-02
1.2355581e-02
1.1930101e-02
1.0843557e-02
9.9229059e-03
9.5289890e-03
9.3722812e-03
8.8307119e-03
7.4216788e-03
4.7941014e-03
1.6284036e-03
-1.4353590e-03
-4.3583640e-03
-6.7785403e-03
-8.2760964e-03
-8.9196303e-03
-9.4075554e-03
-1.0089700e-02
-1.0730127e-02
-1.1026460e-02
-1.0261987e-02
-8.5937725e-03
-6.8219427e-03
-4.8119919e-03
-2.5611677e-03
-4.2125350e-04
1.1666897e-03
2.3168203e-03
3.5835632e-03
4.6352141e-03
5.5711123e-03
6.3804743e-03
6.5855570e-03
6.8040938e-03
6.9423692e-03
6.3972561e-03
5.0292680e-03
2.8794510e-03
8.1081856e-04
-8.4480329e-04
-1.8775252e-03
-2.0253737e-03
-1.2662922e-03
2.7517557e-04
1.3841262e-03
1.6096197e-03
1.4459400e-03
1.2991281e-03
1.2538258e-03
8.8379064e-04
2.1641577e-04
-9.6836816e-04
-2.8413767e-03
-4.7635274e-03
-6.3550298e-03
-7.3712262e-03
-8.1777989e-03
-9.3328128e-03
-1.0548805e-02
-1.1255386e-02
-1.0731383e-02
-9.0810971e-03
-6.8644004e-03
-4.0980991e-03
-7.9439963e-04
2.8910005e-03
6.3588543e-03
9.3639634e-03
1.1614941e-02
1.2687679e-02
1.3246060e-02
1.3669785e-02
1.4302064e-02
1.5286986e-02
1.5575311e-02
1.5232571e-02
1.4891084e-02
1.4188874e-02
1.3302153e-02
1.2544160e-02
1.1594659e-02
1.0204598e-02
8.7566327e-03
7.2188274e-03
5.2127679e-03
3.1579137e-03
1.0066791e-03
-1.2997930e-03
-3.6374816e-03
-5.8295948e-03
-6.9056003e-03
-6.9601017e-03
-6.7424403e-03
-6.2800732e-03
-5.5483640e-03
-4.3231705e-03
-3.3665224e-03
-3.4986840e-03
-3.9484651e-03
-4.1005644e-03
-3.8864430e-03
-3.6280849e-03
-3.5152867e-03
-3.4451694e-03
-3.2884403e-03
-2.1724784e-03
2.3756109e-04
3.2664579e-03
6.2376936e-03
8.8214762e-03
1.1162525e-02
1.3233798e-02
1.4680341e-02
1.5052939e-02
1.4499982e-02
1.3419256e-02
1.1511877e-02
8.9853609e-03
6.1417465e-03
3.0835370e-03
5.3369717e-04
-1.4850532e-03
-3.1784791e-03
-4.2999380e-03
-4.7935446e-03
-4.1475578e-03
-2.4371052e-03
-7.1444120e-04
5.5779191e-04
1.7075487e-03
3.0698666e-03
4.2440535e-03
5.0221993e-03
5.1636164e-03
4.0992704e-03
2.6010960e-03
1.8405054e-03
1.8493563e-03
1.7290924e-03
8.7240534e-04
-4.4113809e-04
-1.7150081e-03
-2.2827605e-03
-2.4625260e-03
-3.4302750e-03
-5.1186737e-03
-6.7991814e-03
-8.0775075e-03
-9.1080253e-03
-9.8720193e-03
-9.5075538e-03
-8.0578188e-03
-6.3968679e-03
-5.4348562e-03
-5.5374157e-03
-6.0933965e-03
-6.9175245e-03
-7.7625534e-03
-8.1648265e-03
-7.9675691e-03
-7.0692918e-03
-5.8422823e-03
-4.5550817e-03
-3.4289948e-03
-2.7855679e-03
-2.0962120e-03
-6.3864193e-04
2.1851792e-03
5.8383097e-03
8.6035668e-03
1.0323691e-02
1.1782715e-02
1.3102360e-02
1.3778980e-02
1.3734578e-02
1.3119567e-02
1.1641785e-02
9.4503735e-03
7.2420136e-03
5.9614142e-03
5.4194346e-03
4.4208927e-03
3.1128734e-03
2.1376833e-03
1.2747932e-03
4.8521063e-04
-3.6480214e-05
-2.5854823e-04
-8.1798733e-04
-2.0122689e-03
-3.3325899e-03
-4.8232159e-03
-6.5034474e-03
-8.1586754e-03
-9.0198984e-03
-8.2269443e-03
-6.2258357e-03
-3.8922142e-03
-2.1055807e-03
-9.9550030e-04
7.1494438e-06
8.5642882e-04
1.7481617e-03
2.4772168e-03
2.8890793e-03
3.6695654e-03
4.3322481e-03
4.4385625e-03
4.0063887e-03
3.2250579e-03
2.8603572e-03
2.7452890e-03
2.6363198e-03
2.1923980e-03
8.7496560e-04
-1.2311081e-03
-3.8352815e-03
-6.1786159e-03
-8.2167023e-03
-9.9032040e-03
-1.0512670e-02
-1.0521566e-02
-1.0364250e-02
-1.0132680e-02
-9.7786608e-03
-8.9449463e-03
-8.1810039e-03
-7.3178441e-03
-5.8819868e-03
-4.7021274e-03
-4.6343208e-03
-5.1703905e-03
-5.2103539e-03
-4.9150167e-03
-4.2550961e-03
-2.9346317e-03
-1.3734394e-03
2.7410308e-04
1.6583897e-03
2.6048937e-03
3.2221917e-03
3.5568819e-03
3.5029747e-03
2.8549339e-03
2.3382157e-03
2.1868269e-03
2.3008551e-03
3.4072904e-03
5.1821719e-03
6.7894643e-03
8.0753286e-03
9.2283684e-03
1.0682439e-02
1.2169036e-02
1.2961672e-02
1.2953133e-02
1.2629094e-02
1.2397738e-02
1.2135462e-02
1.1978732e-02
1.1695466e-02
1.0270748e-02
7.8683747e-03
5.6709170e-03
4.4159201e-03
3.4966183e-03
2.0980990e-03
4.6574025e-04
-1.1962301e-03
-2.3262352e-03
-2.7801077e-03
-3.3759900e-03
-4.1129905e-03
-5.0924063e-03
-6.2682839e-03
-7.2350119e-03
-8.4119711e-03
-9.7561010e-03
-1.0765317e-02
-1.1054857e-02
-1.0887739e-02
-1.0455937e-02
-9.0287393e-03
-6.9068807e-03
-4.6785106e-03
-2.4285446e-03
-6.1393540e-04
4.9077568e-04
9.7928482e-04
1.4319655e-03
1.8716302e-03
1.7644665e-03
1.3750834e-03
9.9684464e-04
9.5373831e-04
1.2380055e-03
1.2448994e-03
1.1085293e-03
8.8197106e-04
1.4314997e-04
-8.5278514e-04
-1.6743169e-03
-2.5305756e-03
-3.8488959e-03
-5.5042379e-03
-7.1636472e-03
-8.8678836e-03
-1.0717363e-02
-1.2950393e-02
-1.5246905e-02
-1.7100605e-02
-1.8886723e-02
-2.0680020e-02
-2.1940280e-02
-2.2000837e-02
-2.0756442e-02
-1.8171778e-02
-1.3775222e-02
-8.4920938e-03
-4.0946717e-03
-1.1351053e-03
1.3110187e-03
4.0128116e-03
6.6745797e-03
9.0166462e-03
1.0709509e-02
1.1732065e-02
1.2815002e-02
1.4514730e-02
1.6520546e-02
1.7461995e-02
1.6800318e-02
1.5368560e-02
1.4023242e-02
1.3354133e-02
1.2926141e-02
1.2584997e-02
1.2564697e-02
1.2285706e-02
1.1716658e-02
1.0907288e-02
9.6519363e-03
7.7788946e-03
5.4485687e-03
3.6671832e-03
2.3645321e-03
9.9411089e-04
-5.6103724e-05
-6.2757618e-04
-8.6044411e-04
-1.1987433e-03
-1.7477411e-03
-2.3387518e-03
-3.2654110e-03
-4.4691820e-03
-6.0194811e-03
-8.2273802e-03
-1.1164841e-02
-1.4501474e-02
-1.7253248e-02
-1.8977002e-02
-1.9795419e-02
-1.9828990e-02
-1.9375207e-02
-1.8469876e-02
-1.7051964e-02
-1.4901685e-02
-1.1964119e-02
-8.5151143e-03
-4.5981826e-03
-5.5507542e-04
3.0288388e-03
5.5729005e-03
6.9540621e-03
7.9439705e-03
8.8898799e-03
9.6706495e-03
1.0234077e-02
1.0811171e-02
1.2273135e-02
1.4472201e-02
1.6566762e-02
1.8643619e-02
2.0800272e-02
2.2426401e-02
2.3005926e-02
2.2961037e-02
2.2424995e-02
2.0879196e-02
1.8525508e-02
1.5474260e-02
1.1368581e-02
5.5690827e-03
-1.5101616e-03
-7.5854827e-03
-1.1528864e-02
-1.3616092e-02
-1.4941885e-02
-1.6571826e-02
-1.7874218e-02
-1.8462107e-02
-1.8513680e-02
-1.8046479e-02
-1.7325001e-02
-1.6438944e-02
-1.5200240e-02
-1.3445308e-02
-1.1447069e-02
-9.3523559e-03
-7.0187195e-03
-4.4464487e-03
-1.4331754e-03
1.2612389e-03
2.5903007e-03
3.3601274e-03
4.6924822e-03
6.3967681e-03
7.7918148e-03
9.0052768e-03
1.0199236e-02
1.1097750e-02
1.1978964e-02
1.2598461e-02
1.2801824e-02
1.3134373e-02
1.2770854e-02
1.1042493e-02
8.6230078e-03
5.8712649e-03
3.1012437e-03
7.3340922e-04
-1.2336022e-03
-2.8780753e-03
-4.1071689e-03
-4.7966879e-03
-5.1038572e-03
-5.1869552e-03
-5.1429763e-03
-4.8110898e-03
-4.0521142e-03
-3.6598436e-03
-3.9405347e-03
-5.3124894e-03
-7.9172204e-03
-1.0011726e-02
-1.0959333e-02
-1.1605612e-02
-1.2264260e-02
-1.2488881e-02
-1.1790402e-02
-1.0161770e-02
-7.9468486e-03
-6.1121683e-03
-4.9166758e-03
-3.9121600e-03
-3.0417482e-03
-1.7232874e-03
-3.0083998e-04
4.8158064e-04
9.2736719e-04
1.0566096e-03
1.1521228e-03
1.6007680e-03
2.4415301e-03
3.6225667e-03
4.9798045e-03
6.8540891e-03
9.2400578e-03
1.1505642e-02
1.3247032e-02
1.4399576e-02
1.5364907e-02
1.5943027e-02
1.6115629e-02
1.6226773e-02
1.5491600e-02
1.3646792e-02
1.0856267e-02
7.7707258e-03
5.2557993e-03
2.6870651e-03
-1.4187237e-04
-2.8899926e-03
-5.6117769e-03
-8.0083427e-03
-9.6504076e-03
-1.0320949e-02
-1.0387385e-02
-1.0162978e-02
-9.8395064e-03
-9.9846378e-03
-1.0018265e-02
-9.0533788e-03
-7.3519489e-03
-5.9271591e-03
-5.4847259e-03
-5.3620942e-03
-5.2534238e-03
-5.5162398e-03
-6.0399463e-03
-6.5202294e-03
-6.5393799e-03
-6.2939439e-03
-6.0574432e-03
-5.7679787e-03
-5.2400878e-03
-4.2201014e-03
-3.2332245e-03
-2.2371649e-03
-1.0433661e-03
-1.2145300e-04
4.8035753e-04
6.9537558e-04
9.1597323e-04
1.0952426e-03
1.0089621e-03
1.4287995e-03
2.5829092e-03
4.2378889e-03
5.5153591e-03
5.6788188e-03
5.0659061e-03
3.9168426e-03
2.8276132e-03
1.9566554e-03
1.1600177e-03
7.3686944e-04
3.7932427e-04
2.4471201e-04
3.0048556e-04
3.9303732e-04
1.4267582e-03
3.2446390e-03
5.0164885e-03
6.2513110e-03
6.7897435e-03
7.3242250e-03
7.8653959e-03
8.0344962e-03
7.6613861e-03
6.2656355e-03
3.4621661e-03
-8.8582887e-04
-5.4625067e-03
-8.6141259e-03
-1.0230946e-02
-1.0599962e-02
-1.0299608e-02
-9.4786810e-03
-8.2963851e-03
-7.6013240e-03
-6.9993064e-03
-5.7835412e-03
-4.0946724e-03
-2.7681901e-03
-1.9855729e-03
-1.2564817e-03
-9.6047735e-04
-8.9482248e-04
-1.0068557e-03
-1.7496307e-03
-2.3163170e-03
-2.2703637e-03
-2.2986011e-03
-3.1023790e-03
-4.3082566e-03
-5.1579530e-03
-6.4856971e-03
-8.2292604e-03
-8.9399524e-03
-8.4107941e-03
-6.9544816e-03
-5.2276417e-03
-3.8210937e-03
-2.3950154e-03
-6.3986831e-04
1.0061258e-03
2.7112354e-03
5.3637801e-03
8.3767079e-03
1.0802900e-02
1.2363937e-02
1.2815052e-02
1.2918686e-02
1.3254728e-02
1.3512086e-02
1.3814096e-02
1.4329925e-02
1.5207375e-02
1.6177878e-02
1.6441746e-02
1.5792867e-02
1.4401181e-02
1.2566855e-02
1.0178254e-02
7.2362408e-03
4.5871742e-03
2.5600707e-03
1.3339486e-03
7.2847459e-04
3.5730358e-04
2.9342456e-05
-9.2383859e-04
-2.1215088e-03
-2.9046978e-03
-3.6704418e-03
-5.1126850e-03
-7.3578230e-03
-9.6308126e-03
-1.1573129e-02
-1.3456746e-02
-1.4925551e-02
-1.5049442e-02
-1.3055072e-02
-9.1765308e-03
-4.4122942e-03
9.1344566e-05
3.6230405e-03
6.7004843e-03
9.6769181e-03
1.2430005e-02
1.4795055e-02
1.6507123e-02
1.7453679e-02
1.7354549e-02
1.6503321e-02
1.5127339e-02
1.2851664e-02
9.9859824e-03
6.8926389e-03
3.8425311e-03
1.4693267e-03
2.0133121e-04
-2.9740794e-05
1.3264160e-04
2.9247735e-04
2.1162172e-04
-5.6158229e-04
-1.8234156e-03
-2.9989533e-03
-3.6312590e-03
-3.9350998e-03
-4.1358553e-03
-4.0059597e-03
-4.1985845e-03
-5.1346930e-03
-6.6172114e-03
-8.5192750e-03
-1.0540508e-02
-1.2658505e-02
-1.4501991e-02
-1.5733555e-02
-1.6554869e-02
-1.6842296e-02
-1.6924395e-02
-1.6757517e-02
-1.5793151e-02
-1.4577003e-02
-1.3898314e-02
-1.3834648e-02
-1.3563304e-02
-1.3204154e-02
-1.3651587e-02
-1.4241392e-02
-1.4048641e-02
-1.2285170e-02
-8.6473108e-03
-3.4813252e-03
2.5236648e-03
7.9412858e-03
1.2389750e-02
1.5814092e-02
1.7804439e-02
1.8596885e-02
1.8430872e-02
1.7585743e-02
1.6251119e-02
1.4578951e-02
1.2687330e-02
1.0568498e-02
8.9054189e-03
7.2063945e-03
4.5394391e-03
1.7111872e-03
-1.0488195e-03
-4.3226571e-03
-7.6772500e-03
-9.8547292e-03
-1.0674907e-02
-1.0871825e-02
-1.0305097e-02
-9.1854284e-03
-8.0384630e-03
-6.5432117e-03
-4.7279939e-03
-2.4022893e-03
3.4350981e-04
2.5959693e-03
4.2552725e-03
5.4107763e-03
6.0245670e-03
6.2020522e-03
6.4420143e-03
7.2605063e-03
8.4616058e-03
9.9432912e-03
1.1445724e-02
1.2876837e-02
1.4438504e-02
1.5959043e-02
1.7452509e-02
1.8581021e-02
1.9197987e-02
1.9674247e-02
1.9647337e-02
1.9012828e-02
1.7435649e-02
1.3976774e-02
9.2242772e-03
4.5791457e-03
6.0008151e-04
-2.3222274e-03
-3.6185853e-03
-4.1623163e-03
-4.9535867e-03
-5.7266763e-03
-7.1144768e-03
-9.1590985e-03
-1.1202491e-02
-1.3776291e-02
-1.6612662e-02
-1.8954950e-02
-2.0691873e-02
-2.2380211e-02
-2.4505403e-02
-2.6007177e-02
-2.6288449e-02
-2.5837569e-02
-2.5142629e-02
-2.4225485e-02
-2.2276388e-02
-1.8989703e-02
-1.3599632e-02
-6.5368668e-03
-5.9426385e-04
3.2970736e-03
5.5636685e-03
6.9107361e-03
8.0441056e-03
8.5762672e-03
9.1107913e-03
1.0038686e-02
1.0185805e-02
9.0130335e-03
6.9819625e-03
5.1865505e-03
4.3240697e-03
4.0259358e-03
3.7254381e-03
3.3433651e-03
3.0135233e-03
2.7037936e-03
2.7020247e-03
2.5645434e-03
1.5607421e-03
-2.8130149e-04
-3.1569468e-03
-6.6810830e-03
-1.0166719e-02
-1.3305346e-02
-1.5620504e-02
-1.6759652e-02
-1.6450742e-02
-1.4610312e-02
-1.1678905e-02
-8.2776515e-03
-4.8465300e-03
-1.3856729e-03
1.6874877e-03
3.6564778e-03
4.4033099e-03
4.0244188e-03
2.9066467e-03
7.2587749e-04
-3.2551550e-03
-8.6595700e-03
-1.4262782e-02
-1.9012925e-02
-2.2869530e-02
-2.5666021e-02
-2.6962229e-02
-2.6944404e-02
-2.5238279e-02
-2.1891317e-02
-1.7580662e-02
-1.2161683e-02
-5.8216751e-03
1.2833419e-03
8.8973402e-03
1.6606049e-02
2.4411995e-02
3.1980668e-02
3.9189630e-02
4.6058538e-02
5.2549408e-02
5.8973872e-02
6.5925693e-02
7.3687465e-02
8.1076059e-02
8.6761379e-02
9.0837755e-02
9.3595583e-02
9.4327946e-02
9.1227003e-02
8.3660753e-02
7.1975052e-02
5.5701333e-02
3.3487591e-02
7.4199262e-03
-1.4711949e-02
-2.9609350e-02
-3.9244066e-02
-4.4509439e-02
-4.7352878e-02
-4.9488086e-02
-5.1328560e-02
-5.3082190e-02
-5.4095434e-02
-5.3965784e-02
-5.2365485e-02
-4.9680539e-02
-4.7197639e-02
-4.4764340e-02
-4.1430950e-02
-3.7056427e-02
-3.2637887e-02
-2.9084250e-02
-2.6353326e-02
-2.4562391e-02
-2.3687593e-02
-2.3440146e-02
-2.3321941e-02
-2.2368373e-02
-2.1083332e-02
-2.0352930e-02
-1.9840593e-02
-1.9274683e-02
-1.8416070e-02
-1.7372128e-02
-1.6734600e-02
-1.6621282e-02
-1.6042175e-02
-1.4413211e-02
-1.2393231e-02
-9.8269306e-03
-6.7511061e-03
-3.8722048e-03
-1.1689809e-03
8.7108978e-04
1.9978919e-03
2.3085514e-03
1.8429865e-03
1.3099049e-03
1.0132853e-03
1.4461760e-03
2.7221175e-03
4.3324115e-03
6.5677742e-03
9.4684128e-03
1.2532819e-02
1.4832035e-02
1.5892678e-02
1.6431746e-02
1.6790924e-02
1.6632303e-02
1.5500372e-02
1.3451378e-02
1.1284977e-02
9.5233206e-03
8.3159446e-03
7.4418641e-03
6.6209753e-03
6.3322694e-03
6.7401575e-03
7.4648828e-03
8.0447857e-03
8.4913858e-03
9.1443127e-03
1.0045261e-02
1.1736464e-02
1.3878301e-02
1.5795451e-02
1.8238967e-02
2.1270162e-02
2.3947620e-02
2.5048471e-02
2.4280906e-02
2.3052775e-02
2.2121931e-02
2.1403042e-02
2.0715039e-02
1.9798238e-02
1.7885626e-02
1.3927556e-02
7.9232467e-03
2.9250592e-04
-7.9476237e-03
-1.5855656e-02
-2.3277852e-02
-2.9442247e-02
-3.3888927e-02
-3.6111443e-02
-3.5302018e-02
-3.1803020e-02
-2.6401991e-02
-2.0427761e-02
-1.5481583e-02
-1.1979734e-02
-9.3520802e-03
-7.2757793e-03
-5.7018891e-03
-4.4850432e-03
-3.6866912e-03
-2.9624230e-03
-1.8438882e-03
-7.9351866e-04
7.1388810e-06
6.4314239e-04
5.6405879e-04
-3.0536389e-04
-2.0277186e-03
-4.2115372e-03
-6.0396162e-03
-7.8349496e-03
-9.7868789e-03
-1.1824123e-02
-1.4002535e-02
-1.5938402e-02
-1.7587388e-02
-1.8958328e-02
-1.9439565e-02
-1.8082698e-02
-1.4201778e-02
-8.3782509e-03
-1.9956983e-03
3.9392470e-03
9.1451495e-03
1.2953706e-02
1.4660515e-02
1.5042988e-02
1.4649071e-02
1.3603370e-02
1.2207161e-02
1.0412185e-02
8.3045385e-03
6.0665741e-03
4.0427407e-03
1.6077039e-03
-1.5848996e-03
-4.2616234e-03
-6.3739565e-03
-8.3895904e-03
-9.7682073e-03
-1.0069897e-02
-9.3298771e-03
-7.9221553e-03
-5.9457313e-03
-3.7863140e-03
-2.1943478e-03
-6.5656145e-04
1.4239085e-03
3.7552869e-03
5.8418770e-03
7.3628847e-03
8.5913131e-03
9.5414233e-03
1.0374343e-02
1.0895239e-02
1.0523213e-02
9.8512619e-03
9.6903546e-03
1.0704564e-02
1.2540777e-02
1.4314999e-02
1.6099653e-02
1.7814014e-02
1.9393725e-02
2.0225720e-02
1.9505040e-02
1.7694948e-02
1.5416232e-02
1.2615996e-02
8.5521760e-03
3.7597218e-03
-3.6864357e-04
-3.6000796e-03
-5.7510051e-03
-6.7896330e-03
-6.9552367e-03
-6.8138007e-03
-6.9202241e-03
-6.8079781e-03
-6.5581771e-03
-6.6062246e-03
-6.1463213e-03
-5.0035047e-03
-4.0216964e-03
-3.5940687e-03
-3.1584514e-03
-2.0125702e-03
-1.7188933e-05
3.1653725e-03
6.4173388e-03
8.0358131e-03
8.0055764e-03
7.0712741e-03
6.0907664e-03
4.7641678e-03
2.6916895e-03
3.3112360e-04
-2.0526614e-03
-3.6788776e-03
-4.4956157e-03
-5.0826838e-03
-5.4730295e-03
-5.5047554e-03
-4.5874295e-03
-3.1326320e-03
-1.9907938e-03
-1.4999862e-03
-1.8707453e-03
-2.4928938e-03
-3.1309793e-03
-3.9786639e-03
-5.0565516e-03
-6.5320800e-03
-8.0951730e-03
-9.4771432e-03
-1.0681101e-02
-1.1629012e-02
-1.1550701e-02
-9.3951000e-03
-5.2183366e-03
1.3597473e-05
4.5477251e-03
7.1320232e-03
8.1095485e-03
8.1390191e-03
7.4066029e-03
5.5138563e-03
2.4619951e-03
-6.1634772e-04
-3.0002256e-03
-4.7376136e-03
-5.9740261e-03
-6.9214505e-03
-7.4369908e-03
-7.5455473e-03
-7.2347371e-03
-6.6997364e-03
-6.3415821e-03
-5.8593225e-03
-5.6032381e-03
-5.6042011e-03
-5.5761179e-03
-5.5741480e-03
-5.2562556e-03
-4.4051370e-03
-3.0155406e-03
-2.2555507e-03
-2.5350173e-03
-2.7282856e-03
-2.4917529e-03
-1.4309348e-03
1.9575681e-04
1.7625430e-03
3.5693619e-03
5.3768542e-03
7.1611325e-03
8.9167601e-03
1.0288198e-02
1.1335847e-02
1.2076611e-02
1.2627965e-02
1.2718758e-02
1.2573072e-02
1.3175363e-02
1.4279364e-02
1.5347235e-02
1.5813463e-02
1.5530009e-02
1.5378172e-02
1.4655971e-02
1.2644075e-02
9.9416738e-03
7.0893172e-03
4.4795018e-03
2.0394643e-03
2.3201070e-04
-1.1086808e-03
-2.7963155e-03
-4.6220783e-03
-6.0245364e-03
-6.4964904e-03
-6.3546315e-03
-6.3443373e-03
-6.5814013e-03
-6.2611651e-03
-4.5791569e-03
-2.5799608e-03
-1.0813254e-03
7.6444425e-04
2.7938768e-03
4.3627393e-03
5.5991196e-03
7.0273078e-03
8.4453925e-03
8.2559672e-03
6.3827996e-03
4.3251750e-03
3.2956849e-03
3.7746975e-03
5.1560607e-03
7.1853276e-03
9.5450251e-03
1.1627522e-02
1.3411407e-02
1.5013961e-02
1.6767308e-02
1.8217915e-02
1.8580007e-02
1.8144621e-02
1.7412210e-02
1.6896528e-02
1.6661964e-02
1.6352383e-02
1.5622251e-02
1.3610431e-02
1.0063149e-02
5.3814853e-03
-9.8756851e-05
-6.4097893e-03
-1.4333826e-02
-2.2633501e-02
-2.8720127e-02
-3.1989947e-02
-3.2798617e-02
-3.1752333e-02
-2.9285444e-02
-2.6422340e-02
-2.4206552e-02
-2.2337223e-02
-2.1142911e-02
-2.0502817e-02
-1.9653406e-02
-1.8290664e-02
-1.6353097e-02
-1.4873638e-02
-1.4234088e-02
-1.3618380e-02
-1.2536204e-02
-1.1171783e-02
-9.7967784e-03
-7.9793196e-03
-5.6989802e-03
-3.0420418e-03
-1.1381289e-04
2.8566798e-03
6.3060258e-03
9.6280250e-03
1.2126748e-02
1.3920343e-02
1.4666649e-02
1.4458820e-02
1.3979134e-02
1.3678130e-02
1.3016426e-02
1.0768296e-02
7.0553637e-03
2.6487368e-03
-2.6280885e-03
-9.1907269e-03
-1.6533516e-02
-2.3623653e-02
-2.9941807e-02
-3.4901438e-02
-3.8307990e-02
-4.0240438e-02
-4.0193379e-02
-3.7500400e-02
-3.2023754e-02
-2.4564593e-02
-1.4787043e-02
-3.2777288e-03
6.3813790e-03
1.2971034e-02
1.7208466e-02
1.9224838e-02
1.9842061e-02
1.9676484e-02
1.9210304e-02
1.8798499e-02
1.8130045e-02
1.6988985e-02
1.5565628e-02
1.4198806e-02
1.2814655e-02
1.1803229e-02
1.1990408e-02
1.3315526e-02
1.5502201e-02
1.7923547e-02
1.9965111e-02
2.0992504e-02
2.0325820e-02
1.7929352e-02
1.3834946e-02
8.6817355e-03
3.1215862e-03
-2.0318611e-03
-5.9227064e-03
-8.9152533e-03
-1.0957937e-02
-1.1931543e-02
-1.2464385e-02
-1.2219367e-02
-1.1040189e-02
-9.5413564e-03
-8.0241933e-03
-6.4687513e-03
-4.3407951e-03
-2.0065941e-03
5.5580071e-05
2.4995220e-03
5.4797070e-03
8.6362332e-03
1.1123571e-02
1.2679859e-02
1.3594299e-02
1.3466856e-02
1.2727757e-02
1.1039391e-02
7.2174086e-03
2.4049345e-03
-1.3436379e-03
-3.4665505e-03
-4.5928720e-03
-4.9029922e-03
-4.1222534e-03
-2.4691977e-03
-2.1169595e-04
1.9781763e-03
3.4531992e-03
3.9946652e-03
3.7036530e-03
3.5781205e-03
3.9333192e-03
4.3601137e-03
4.7789147e-03
5.0614755e-03
5.3388862e-03
5.1985733e-03
4.4587554e-03
3.7473626e-03
2.7218033e-03
1.2081041e-03
-7.1345582e-04
-3.3689491e-03
-6.0467210e-03
-7.4854029e-03
-6.9186217e-03
-5.4128691e-03
-4.4919148e-03
-4.0751128e-03
-4.0459140e-03
-3.9166306e-03
-3.3139196e-03
-2.5158544e-03
-1.6581545e-03
-8.3369400e-04
-3.4660432e-05
3.7212591e-04
1.6916906e-04
-4.4881675e-04
-1.3048051e-03
-2.7084195e-03
-5.1566803e-03
-7.9145190e-03
-1.0302401e-02
-1.2293682e-02
-1.3008126e-02
-1.2189364e-02
-1.0344269e-02
-8.1654384e-03
-6.6984390e-03
-5.7441545e-03
-5.1013739e-03
-5.3979525e-03
-6.8363579e-03
-8.9682917e-03
-1.0902928e-02
-1.2436174e-02
-1.3671220e-02
-1.4220574e-02
-1.4060611e-02
-1.3666937e-02
-1.3505068e-02
-1.3506877e-02
-1.3458456e-02
-1.3392542e-02
-1.3200688e-02
-1.2872654e-02
-1.2199628e-02
-1.1261877e-02
-1.0518740e-02
-9.8926128e-03
-9.5784565e-03
-9.9881296e-03
-1.1078772e-02
-1.2037352e-02
-1.2047898e-02
-1.1800934e-02
-1.1552286e-02
-1.1162198e-02
-1.0714071e-02
-9.3775795e-03
-7.4674308e-03
-5.7879031e-03
-4.4891338e-03
-3.5258969e-03
-2.2109020e-03
-4.3441080e-04
1.1777158e-03
2.1878430e-03
3.1163264e-03
5.0292222e-03
7.7528581e-03
1.0596534e-02
1.3033585e-02
1.4608347e-02
1.5867467e-02
1.7231791e-02
1.8035444e-02
1.7727524e-02
1.6927109e-02
1.6622952e-02
1.7013853e-02
1.7764311e-02
1.7971474e-02
1.7278995e-02
1.6700660e-02
1.6919876e-02
1.7690787e-02
1.8311903e-02
1.8704127e-02
1.9225045e-02
1.9449119e-02
1.9397507e-02
1.9082771e-02
1.8259660e-02
1.7159742e-02
1.5759543e-02
1.4508575e-02
1.3661330e-02
1.2583255e-02
1.0645181e-02
7.2309481e-03
1.9134503e-03
-4.4069351e-03
-9.5270654e-03
-1.2472702e-02
-1.3696027e-02
-1.3575954e-02
-1.2809274e-02
-1.1939637e-02
-1.1035342e-02
-9.9378737e-03
-8.1777275e-03
-6.2736242e-03
-4.7949718e-03
-3.6213013e-03
-2.8740232e-03
-2.1838840e-03
-1.4298574e-03
-2.0024098e-04
1.6479219e-03
3.1985208e-03
4.8306393e-03
6.7443488e-03
8.8377214e-03
1.1253958e-02
1.3627641e-02
1.6435304e-02
1.9429787e-02
2.1384434e-02
2.1905507e-02
2.1471451e-02
1.9961699e-02
1.6278614e-02
1.1075650e-02
5.8977234e-03
8.8839717e-04
-3.9049680e-03
-8.3637736e-03
-1.2310714e-02
-1.5335019e-02
-1.7673251e-02
-1.8872562e-02
-1.8267299e-02
-1.6052559e-02
-1.2659507e-02
-8.7811658e-03
-4.7092957e-03
-1.1180940e-03
1.4099583e-03
2.9415301e-03
2.9483809e-03
1.1362015e-03
-2.0843766e-03
-5.8409573e-03
-9.5670015e-03
-1.3375256e-02
-1.6711853e-02
-1.9520588e-02
-2.2069304e-02
-2.4012617e-02
-2.6068063e-02
-2.8226274e-02
-3.0114866e-02
-3.2176167e-02
-3.4260669e-02
-3.6209328e-02
-3.7649944e-02
-3.8916364e-02
-4.0346927e-02
-4.1016439e-02
-4.0481368e-02
-3.8974116e-02
-3.6811903e-02
-3.3079332e-02
-2.6898298e-02
-1.9213251e-02
-1.0199684e-02
-3.8584069e-04
8.2426212e-03
1.5064201e-02
2.0374859e-02
2.4349077e-02
2.6639292e-02
2.7276045e-02
2.7119485e-02
2.6621440e-02
2.5923280e-02
2.4212309e-02
2.2022574e-02
2.1286044e-02
2.1902766e-02
2.3209718e-02
2.4961860e-02
2.6988503e-02
2.8945390e-02
3.0127503e-02
3.0934352e-02
3.1760018e-02
3.1951249e-02
3.0806397e-02
2.7816683e-02
2.2990744e-02
1.7661401e-02
1.4073890e-02
1.2447699e-02
1.1698667e-02
1.1735026e-02
1.2407752e-02
1.3401502e-02
1.3706840e-02
1.2436069e-02
1.0937120e-02
1.0454480e-02
1.0522612e-02
9.7921605e-03
7.4942377e-03
4.4136136e-03
9.8642115e-04
-2.5201065e-03
-5.5235028e-03
-7.9439611e-03
-9.3147929e-03
-9.3336947e-03
-8.1768757e-03
-5.8078237e-03
-2.6476878e-03
