2.5600234e-02
1.4910589e-01
2.4381038e-01
2.5087282e-01
2.0083490e-01
1.3114602e-01
7.9676629e-02
9.4856903e-02
1.3917166e-01
1.2154876e-01
3.0569808e-02
-7.4455399e-02
-1.3876292e-01
-1.2912645e-01
-3.9446001e-02
8.2451549e-02
1.7077629e-01
1.8317153e-01
1.1949252e-01
4.1952890e-02
-1.4890346e-02
-5.3713358e-02
-7.1064413e-02
-7.1444929e-02
-6.3490073e-02
-5.6515130e-02
-5.8298314e-02
-6.8439375e-02
-7.7891315e-02
-8.2267714e-02
-8.4963331e-02
-8.7925330e-02
-8.1949852e-02
-6.1491951e-02
-3.4022365e-02
-2.4538380e-03
2.7395466e-02
2.6490142e-02
-3.1580203e-02
-1.1961391e-01
-1.8220107e-01
-1.8984974e-01
-1.4360876e-01
-5.7408939e-02
6.5742741e-02
2.1849584e-01
3.3652253e-01
3.4038542e-01
2.2864170e-01
4.0947003e-02
-1.5632966e-01
-2.7727252e-01
-3.1184827e-01
-2.7203298e-01
-1.3091860e-01
9.6751639e-02
3.1925668e-01
4.6241094e-01
5.3217669e-01
5.3298829e-01
4.5251373e-01
3.0777972e-01
1.2625526e-01
-5.8631314e-02
-2.0094463e-01
-2.7741387e-01
-3.0407184e-01
-3.0377661e-01
-2.8841098e-01
-2.6944055e-01
-2.5922237e-01
-2.6243422e-01
-2.7401153e-01
-2.8817278e-01
-2.9857882e-01
-2.8351073e-01
-1.9565583e-01
2.0777679e-02
3.3178058e-01
5.9960681e-01
7.3322415e-01
7.2438866e-01
5.7092118e-01
3.1720885e-01
7.6629156e-02
-8.9695154e-02
-1.9289033e-01
-2.5299741e-01
-2.8675510e-01
-2.9821974e-01
-2.7846096e-01
-2.2964900e-01
-1.7832447e-01
-1.3959532e-01
-9.9986281e-02
-4.5411507e-02
1.6216194e-02
7.4216476e-02
1.2743974e-01
1.4443574e-01
1.1051559e-01
6.8943454e-02
3.8468706e-02
1.1846296e-02
-7.1256223e-03
-2.2004966e-02
-3.8321388e-02
-4.8850626e-02
-5.0983644e-02
-5.4316573e-02
-5.9657938e-02
-5.9975862e-02
-5.1425470e-02
-4.3334824e-02
-4.4073124e-02
-4.3953383e-02
-2.2723081e-02
2.6372091e-02
6.2881028e-02
4.7773725e-02
-1.2687742e-02
-7.1922073e-02
-5.2030300e-02
7.0440686e-02
2.0095028e-01
2.1283727e-01
1.1403403e-01
2.1784088e-02
-1.9633241e-02
-2.6945981e-02
-1.7176313e-02
-5.0026905e-02
-1.4753934e-01
-2.4193182e-01
-2.8009511e-01
-2.3939632e-01
-1.5264141e-01
-9.5004985e-02
-5.5891034e-02
3.5840904e-02
1.7596145e-01
2.9142567e-01
3.5418854e-01
3.4083050e-01
2.1483766e-01
5.7262924e-02
-1.9731896e-02
-2.8698958e-02
1.3986487e-02
8.9963249e-02
1.2103396e-01
7.1102857e-02
-1.0609454e-02
-3.2477883e-02
3.3145241e-02
9.5684539e-02
6.2610668e-02
-4.2297859e-02
-1.5689019e-01
-2.2372675e-01
-2.1230329e-01
-1.4842840e-01
-6.9519778e-02
-2.7632970e-02
-3.1146633e-02
-3.4418412e-02
-3.5699983e-02
-3.7061238e-02
-8.5190037e-03
4.2113201e-02
7.1783722e-02
5.9533361e-02
2.6028353e-02
4.9689927e-03
1.6836611e-02
5.5691815e-02
7.4792081e-02
2.3820938e-02
-8.0006449e-02
-1.4775620e-01
-1.1682268e-01
-8.9624061e-03
1.0604949e-01
1.4487420e-01
6.7299750e-02
-4.5126571e-02
-9.6014175e-02
-8.7642520e-02
-3.5040608e-02
2.5280820e-02
1.2579575e-02
-6.8885492e-02
-1.1089732e-01
-7.6548045e-02
-2.9017093e-02
-2.1497438e-02
-4.0557675e-02
2.1053479e-03
1.1466535e-01
1.9998104e-01
2.0375875e-01
1.0511826e-01
-5.9432282e-02
-1.8054899e-01
-1.9322535e-01
-1.2274370e-01
-1.2863215e-02
1.0416700e-01
1.7185837e-01
1.7947259e-01
1.7674125e-01
1.8203037e-01
2.1103904e-01
2.5872034e-01
2.3885236e-01
9.3916450e-02
-1.0638698e-01
-2.4356407e-01
-2.7386523e-01
-2.1540647e-01
-1.3102434e-01
-1.0525087e-01
-1.3030292e-01
-1.5030379e-01
-1.5745100e-01
-1.5229783e-01
-1.2103502e-01
-5.3786929e-02
3.5256830e-02
8.3659083e-02
6.8014214e-02
6.1410522e-02
1.0230699e-01
1.4377492e-01
1.3371903e-01
6.7159342e-02
-1.7700358e-02
-5.8267189e-02
-1.0844673e-02
7.6142789e-02
1.4574474e-01
2.0421444e-01
1.8616130e-01
4.8500725e-02
-9.7570748e-02
-1.7493440e-01
-1.9275479e-01
-1.7878047e-01
-1.7662486e-01
-1.9177594e-01
-1.8487665e-01
-1.1229885e-01
1.3516897e-02
1.1657274e-01
1.4849190e-01
1.3763343e-01
1.6334355e-01
2.3378508e-01
2.5092393e-01
1.3340477e-01
-6.1887524e-02
-1.9715612e-01
-2.2030699e-01
-1.6884789e-01
-8.1452206e-02
3.1773281e-02
1.3539395e-01
1.7233764e-01
1.4352427e-01
1.0604040e-01
1.1286519e-01
1.5588114e-01
1.5718884e-01
6.8201390e-02
-6.7645989e-02
-1.7102197e-01
-2.0036508e-01
-1.6113061e-01
-1.0344576e-01
-1.0390113e-01
-1.6716414e-01
-2.1098870e-01
-1.9592111e-01
-1.5496436e-01
-1.1668589e-01
-7.2671134e-02
-1.9590042e-02
-9.2668778e-03
-4.0414116e-02
-3.3441333e-02
4.5231452e-02
1.6275576e-01
2.4809039e-01
2.5437619e-01
2.1989565e-01
2.1215656e-01
2.4021386e-01
2.4437191e-01
1.5958336e-01
-6.8477720e-03
-1.6056013e-01
-1.9494798e-01
-1.3732876e-01
-9.5979167e-02
-7.5004596e-02
-5.6970193e-02
-2.7647288e-02
3.1443163e-02
4.2891395e-02
-2.7487854e-02
-1.1119521e-01
-1.6489287e-01
-1.7273059e-01
-1.1194848e-01
1.2947768e-02
1.3796515e-01
1.7957772e-01
1.1398364e-01
-9.9391261e-03
-1.1734336e-01
-1.3624526e-01
-3.5295451e-02
1.0880114e-01
1.7475633e-01
1.5377778e-01
1.1697156e-01
1.0265165e-01
1.0560371e-01
1.2679445e-01
1.6260750e-01
1.4517494e-01
4.0589462e-02
-8.4240136e-02
-1.5584281e-01
-1.5930429e-01
-1.2106077e-01
-8.7325546e-02
-9.1663762e-02
-1.0490620e-01
-9.2977933e-02
-6.8301919e-02
-6.0274306e-02
-6.2843497e-02
-5.1717183e-02
-4.5678064e-02
-5.7416149e-02
-6.7272181e-02
-3.8245705e-02
3.4893008e-02
9.0353387e-02
8.4609195e-02
2.3291504e-02
-4.1135246e-02
-4.9233041e-02
4.8990449e-03
8.9539037e-02
1.3037084e-01
1.1460064e-01
1.2395732e-01
1.7125939e-01
1.7158064e-01
7.6580613e-02
-5.9888033e-02
-1.7180630e-01
-2.2283076e-01
-2.2337538e-01
-2.2690317e-01
-2.3542515e-01
-1.9944089e-01
-9.3414163e-02
4.1825829e-02
1.3286677e-01
1.7259484e-01
2.1225498e-01
2.3546624e-01
1.6122774e-01
1.9321056e-02
-8.7137998e-02
-1.2521700e-01
-6.7534892e-02
3.6984332e-02
8.0567989e-02
7.6601392e-02
9.3407309e-02
1.5500562e-01
2.0526580e-01
2.0274296e-01
1.6399762e-01
7.1246474e-02
-4.7660724e-02
-1.3360154e-01
-1.8213864e-01
-1.8983007e-01
-1.5109636e-01
-1.1292350e-01
-1.1302202e-01
-1.1082450e-01
-7.6551615e-02
-3.0180281e-02
-1.3800188e-03
1.5449641e-03
-1.2790324e-02
-3.3414990e-02
-3.7667259e-02
-1.2229793e-02
3.1967062e-02
5.1032374e-02
2.9101267e-02
1.7593592e-02
1.5368669e-02
-2.9240126e-03
1.8215894e-02
8.2657042e-02
1.2408769e-01
1.1412827e-01
6.2753102e-02
8.6268008e-03
-1.2988686e-02
5.5914135e-03
3.1329879e-02
1.0680387e-02
-6.1558990e-02
-1.4015217e-01
-1.7470678e-01
-1.5363685e-01
-1.1579699e-01
-1.1049728e-01
-1.3388182e-01
-1.2448367e-01
-4.2211546e-02
8.8138283e-02
2.0089396e-01
2.5995035e-01
2.4727371e-01
1.6194400e-01
7.0116397e-02
2.6965981e-02
3.9449974e-02
7.2187950e-02
6.0849062e-02
2.6452898e-02
2.0778773e-02
1.9859714e-02
2.3782161e-02
1.9297057e-02
-5.2877621e-02
-1.6108480e-01
-2.2194013e-01
-2.0977535e-01
-1.5375487e-01
-9.1501169e-02
-4.9297020e-02
-4.0497801e-02
-5.5317696e-02
-6.4345702e-02
-3.7918225e-02
4.0620573e-02
1.3387211e-01
1.8660104e-01
1.8728992e-01
1.5447205e-01
1.4287579e-01
1.4536980e-01
1.0242980e-01
1.1801501e-02
-1.0166064e-01
-1.9710504e-01
-2.3375386e-01
-2.0351146e-01
-1.2064170e-01
-1.7895425e-02
7.5693839e-02
1.3087595e-01
1.2123386e-01
8.1366934e-02
6.7263054e-02
8.3677855e-02
9.8512480e-02
6.2265929e-02
-3.9641355e-02
-1.4720759e-01
-2.1575130e-01
-2.5231116e-01
-2.6705524e-01
-2.5936532e-01
-2.1783034e-01
-1.1879831e-01
3.7961025e-02
1.8674330e-01
2.7264669e-01
2.9540644e-01
2.7387919e-01
2.0952478e-01
1.0701909e-01
3.2969518e-02
2.6467684e-02
5.7777741e-02
7.2731836e-02
5.3104113e-02
2.7882220e-02
3.1795416e-02
7.8762423e-02
1.2426831e-01
9.9950873e-02
-1.0333460e-02
-1.2549008e-01
-1.7177140e-01
-1.5726426e-01
-1.2765082e-01
-1.3303164e-01
-1.6986386e-01
-1.8982904e-01
-1.7563003e-01
-1.4116145e-01
-9.2120567e-02
-2.5900759e-02
4.2808470e-02
8.7685193e-02
1.1822694e-01
1.7228537e-01
2.2920869e-01
2.3419201e-01
1.7538435e-01
5.9240702e-02
-8.1691683e-02
-1.7250874e-01
-1.4741392e-01
-5.3725177e-02
-1.3206017e-02
-5.5001143e-02
-1.1334508e-01
-1.2073251e-01
-6.5994524e-02
2.3561143e-02
1.0566648e-01
1.2326472e-01
6.3354830e-02
-3.0017297e-02
-9.8378059e-02
-1.0023098e-01
-5.8730313e-02
-4.4019905e-02
-5.6226965e-02
-3.2857501e-02
6.7771393e-02
2.0910114e-01
2.6520287e-01
1.6687270e-01
-5.9363636e-03
-1.2768862e-01
-1.5547121e-01
-1.1134158e-01
-1.3115554e-02
1.0729854e-01
1.9192100e-01
2.0897025e-01
1.6496208e-01
1.0240616e-01
7.9207457e-02
7.2589872e-02
2.0490438e-02
-5.9338825e-02
-1.2987695e-01
-1.6934811e-01
-1.5060243e-01
-9.3235128e-02
-6.9297733e-02
-1.1508340e-01
-1.6860344e-01
-1.6570942e-01
-1.1393553e-01
-3.8603461e-02
3.5583345e-02
6.5896727e-02
4.5285765e-02
2.2491802e-02
3.2834997e-02
6.4360662e-02
8.9570684e-02
1.1974338e-01
1.5992158e-01
1.4635682e-01
6.7264390e-02
5.8584348e-03
1.5877447e-02
6.4788393e-02
8.3283357e-02
4.4470551e-02
-3.3900710e-02
-1.1189746e-01
-1.5937544e-01
-1.7686310e-01
-1.7051490e-01
-1.5379037e-01
-1.4711807e-01
-1.4579553e-01
-1.2985812e-01
-8.5478418e-02
-3.1165276e-02
-1.5611923e-02
-2.5979925e-02
-5.2447892e-03
7.7185286e-02
1.8450914e-01
2.2614934e-01
1.6105738e-01
2.9927468e-02
-6.9971418e-02
-6.6625748e-02
2.8664721e-02
1.3281202e-01
1.7373122e-01
1.5997221e-01
1.2792396e-01
1.0381355e-01
8.3434062e-02
6.4508043e-02
4.6417636e-02
-7.0084176e-03
-8.7052966e-02
-1.4082621e-01
-1.3681096e-01
-6.9841858e-02
3.6077330e-03
1.2663862e-02
-3.6205161e-02
-1.0030269e-01
-1.3971778e-01
-1.3688772e-01
-1.1558205e-01
-7.3578854e-02
9.4414966e-03
9.0044014e-02
1.1293587e-01
9.0030828e-02
8.8006026e-02
1.5047696e-01
1.9877165e-01
1.1238824e-01
-8.7447060e-02
-2.7280279e-01
-3.7586882e-01
-3.9324469e-01
-3.2231049e-01
-2.0019697e-01
-9.6137625e-02
-9.1446355e-03
1.4063326e-01
3.4783730e-01
5.0128673e-01
5.4392805e-01
4.8158345e-01
3.3695215e-01
1.1855957e-01
-1.2904891e-01
-2.9911306e-01
-3.3281696e-01
-2.6280061e-01
-1.8678612e-01
-1.2230966e-01
-4.4699590e-03
1.3229793e-01
1.9857569e-01
1.6474454e-01
7.9383354e-02
3.0761470e-02
4.3653188e-02
8.9199389e-02
1.2060244e-01
9.0207136e-02
1.1280788e-02
-7.5979004e-02
-1.4039970e-01
-1.6073183e-01
-1.4206498e-01
-1.1155501e-01
-9.4840026e-02
-8.9011975e-02
-7.5271311e-02
-4.8370704e-02
-1.1976095e-03
5.5913422e-02
6.9220820e-02
2.3677356e-02
-2.2308262e-02
-3.2929611e-02
-3.5571140e-02
-6.3273217e-02
-1.0957190e-01
-1.4196459e-01
-1.4759211e-01
-1.3918504e-01
-1.2067563e-01
-6.3028822e-02
5.0606440e-02
1.5426623e-01
1.4483399e-01
2.4017521e-02
-8.4360079e-02
-1.0306285e-01
-8.0111224e-02
-6.6896680e-02
-7.7669812e-02
-1.0920366e-01
-9.7222900e-02
-1.0129597e-02
9.2463649e-02
1.6256059e-01
1.9474903e-01
1.9468069e-01
1.7992386e-01
1.7437402e-01
1.8344338e-01
1.9349542e-01
2.0190116e-01
2.2428185e-01
2.6911880e-01
3.1774649e-01
3.2239295e-01
2.5112764e-01
1.0318983e-01
-1.0335778e-01
-3.1023985e-01
-4.4076948e-01
-4.5477109e-01
-3.5787788e-01
-2.1098191e-01
-9.7822252e-02
-3.8328233e-02
8.1053887e-03
5.5016383e-02
8.8597721e-02
1.2054457e-01
1.2542811e-01
6.0176772e-02
-5.1533108e-02
-1.4768026e-01
-1.7637687e-01
-1.2101998e-01
-4.8005442e-02
-1.3258136e-02
6.9619980e-05
-3.5773518e-03
9.8035949e-03
5.8766291e-02
8.9527433e-02
7.0910552e-02
2.3759649e-02
-2.2998710e-02
-4.9968503e-02
-4.3143188e-02
1.0448581e-03
5.0103546e-02
4.4443333e-02
-4.2858677e-02
-1.4902746e-01
-1.7419689e-01
-1.0184343e-01
-1.3600769e-02
-1.3949685e-02
-9.0232572e-02
-1.1270922e-01
-2.4077593e-02
1.1779760e-01
2.2393543e-01
2.2830875e-01
1.4732799e-01
6.2089722e-02
2.3832648e-02
1.1458651e-02
-2.3603859e-02
-8.1389083e-02
-1.2354971e-01
-1.1851284e-01
-5.0615116e-02
4.3312019e-02
1.0248632e-01
9.9477306e-02
1.5292671e-02
-9.4581635e-02
-1.2134943e-01
-7.6057200e-02
3.5536097e-04
1.1158814e-01
1.9278907e-01
2.0965342e-01
1.8633586e-01
9.6442130e-02
-2.3905245e-02
-7.4315412e-02
-2.9286630e-02
5.8466985e-02
8.9333443e-02
3.2416141e-02
-2.0368976e-02
-2.9665637e-02
-3.2568887e-02
-4.0835810e-02
-7.4954008e-02
-1.2497394e-01
-1.3567049e-01
-1.0245455e-01
-6.3470019e-02
-4.5970341e-02
-5.3021742e-02
-6.0511369e-02
-3.7006603e-02
1.2293343e-02
4.8976111e-02
3.3318810e-02
-3.0722394e-02
-7.2910198e-02
-4.3201217e-02
4.0333908e-02
1.1559155e-01
1.0744246e-01
2.1237999e-02
-4.4453740e-02
-2.3570945e-02
3.9504979e-02
5.3559433e-02
-1.5501178e-03
-7.0105615e-02
-8.5995983e-02
-5.2997738e-02
-3.4299830e-02
-4.7988189e-02
-6.1402607e-02
-4.2229606e-02
1.7430009e-02
8.9327101e-02
1.0543593e-01
3.3400868e-02
-6.3119701e-02
-7.6961071e-02
5.3032219e-03
7.5015342e-02
9.1068793e-02
1.0010770e-01
9.7780004e-02
6.1088249e-02
2.5723419e-02
3.6017513e-02
9.7992775e-02
1.7578538e-01
1.9836557e-01
1.5159659e-01
8.0119974e-02
-2.5898125e-04
-8.1702683e-02
-1.2368465e-01
-1.4289421e-01
-1.7822412e-01
-1.8365493e-01
-1.3969445e-01
-7.7416539e-02
-4.4415558e-02
-5.9052698e-02
-6.3396057e-02
-4.1700758e-02
-1.8208062e-02
1.2262966e-02
4.1518425e-02
4.7640514e-02
3.1794146e-02
7.0878516e-03
6.6201812e-03
4.4644225e-02
7.4419882e-02
4.5564714e-02
-6.6471709e-02
-1.9041406e-01
-2.1017505e-01
-1.0360241e-01
4.4130055e-02
1.1450537e-01
8.0117833e-02
5.3841119e-03
-2.5722862e-02
2.0664379e-02
1.0078810e-01
1.3499898e-01
6.7838070e-02
-5.8586105e-02
-1.4531576e-01
-1.4523968e-01
-9.0087189e-02
-3.2004693e-02
-7.4013812e-03
-7.6457036e-03
2.5602901e-02
8.3563691e-02
1.1307091e-01
8.8947436e-02
7.9114545e-03
-6.0475376e-02
-3.8597489e-02
6.3234044e-02
1.7009083e-01
2.1132737e-01
1.7438513e-01
1.0732289e-01
8.0169209e-02
1.0036268e-01
1.3338329e-01
1.4720620e-01
8.1399993e-02
-5.2735299e-02
-1.6684248e-01
-2.2326536e-01
-2.0200798e-01
-1.1289747e-01
-3.3437276e-02
-1.7950034e-02
-6.3373773e-02
-1.2602730e-01
-1.6540970e-01
-1.8022522e-01
-1.6086458e-01
-8.1904899e-02
4.0598716e-05
1.5837380e-02
1.5067787e-02
6.5048133e-02
1.5107008e-01
2.0428228e-01
1.8123280e-01
9.0737444e-02
-1.2020786e-02
-6.1380323e-02
-7.2484101e-02
-8.3997777e-02
-8.1830972e-02
-7.4643399e-02
-8.1845104e-02
-6.4661419e-02
2.8695094e-02
1.5303488e-01
2.2306979e-01
2.1600055e-01
1.2790289e-01
-1.7609801e-02
-1.5431012e-01
-2.4676707e-01
-2.9131391e-01
-2.7706118e-01
-2.3729334e-01
-1.7573312e-01
-4.5017014e-02
1.1408559e-01
2.1255233e-01
2.1628936e-01
1.5170502e-01
7.4080018e-02
4.0560404e-02
8.1227858e-02
1.3795295e-01
1.5340229e-01
1.3511032e-01
1.0007992e-01
1.0239816e-01
1.6711521e-01
2.3536895e-01
2.4870623e-01
1.7781011e-01
3.5344711e-02
-1.1738733e-01
-2.3811120e-01
-2.8615947e-01
-2.6376117e-01
-2.5486449e-01
-2.6774018e-01
-2.4621634e-01
-1.9387119e-01
-1.3331099e-01
-4.8289120e-02
6.7392758e-02
1.6429367e-01
1.8007828e-01
1.2588143e-01
1.0867346e-01
1.6862167e-01
2.1586706e-01
1.9743999e-01
1.2044397e-01
3.1015072e-04
-1.0577347e-01
-1.4630470e-01
-1.4304665e-01
-1.2835484e-01
-1.1379361e-01
-1.0329539e-01
-7.1008788e-02
-1.4688305e-02
3.7266182e-02
4.3072848e-02
-4.0138719e-03
-3.6439028e-02
-2.8598469e-02
-3.3223119e-02
-9.5846964e-02
-1.9069070e-01
-2.3554486e-01
-1.9045064e-01
-1.0401890e-01
-2.0015557e-02
9.0388216e-02
2.2248504e-01
2.9868239e-01
2.8862277e-01
2.0610116e-01
1.0868677e-01
6.9105406e-02
7.0017991e-02
6.2380633e-02
5.5903677e-02
6.7527210e-02
7.3724602e-02
9.3295960e-02
1.2543967e-01
1.4499539e-01
1.4700752e-01
6.7103581e-02
-9.1689431e-02
-2.1929432e-01
-2.6772425e-01
-2.6043276e-01
-2.3823217e-01
-2.3011964e-01
-2.0734021e-01
-1.4361539e-01
-5.7791107e-02
3.0303307e-02
1.0300068e-01
1.3450592e-01
1.1352213e-01
7.2477942e-02
4.7603854e-02
5.9170009e-02
9.2288151e-02
8.7135522e-02
4.3482068e-02
8.4452942e-03
-3.3855671e-02
-9.2653545e-02
-9.9857914e-02
-3.5321824e-02
3.0265264e-02
2.0245632e-02
-6.0757186e-02
-1.3632565e-01
-1.6059784e-01
-1.2330654e-01
-2.0082216e-02
1.0517293e-01
1.8400310e-01
1.7261760e-01
4.8136123e-02
-1.2705461e-01
-2.4380344e-01
-2.5776103e-01
-1.9789736e-01
-1.0980784e-01
-2.6508731e-02
4.4469375e-02
1.2663423e-01
1.9000707e-01
1.8968446e-01
1.2260457e-01
3.2849169e-02
1.3628998e-02
7.5549232e-02
1.4439990e-01
2.0868163e-01
2.7398393e-01
2.9237230e-01
2.8024160e-01
2.9363900e-01
2.9272159e-01
2.0647107e-01
1.6412719e-02
-2.1175963e-01
-3.6704267e-01
-4.2993280e-01
-4.3806725e-01
-4.0174113e-01
-3.3053913e-01
-2.2968261e-01
-1.2000224e-01
-4.1253309e-02
9.1496698e-03
3.0690999e-02
2.3776266e-02
9.2752483e-03
-8.0465120e-03
1.7409129e-02
7.7558134e-02
1.2034208e-01
1.8458834e-01
2.6511099e-01
2.8961742e-01
2.3003058e-01
1.1122466e-01
1.3642858e-03
-4.2325788e-02
-4.6168880e-02
-7.4719648e-02
-1.1666851e-01
-1.1598015e-01
-8.5377043e-02
-7.8005306e-02
-9.4662220e-02
-1.0229044e-01
-7.9198262e-02
-1.0817188e-02
5.9390671e-02
6.0053966e-02
4.6733887e-03
-6.7693614e-02
-1.2890827e-01
-1.2333040e-01
-5.5447732e-02
3.3922327e-03
1.4467698e-03
-5.6149744e-02
-1.0413800e-01
-9.5480983e-02
-2.4627244e-02
7.9890426e-02
1.8401023e-01
2.7504559e-01
3.0265444e-01
2.5685512e-01
2.1656514e-01
2.3283438e-01
2.6558243e-01
2.2335007e-01
7.1285352e-02
-1.3521215e-01
-3.0125044e-01
-3.6344841e-01
-3.3607183e-01
-2.6931492e-01
-2.0211016e-01
-1.5869163e-01
-1.2448264e-01
-5.2366816e-02
6.7656199e-02
1.8426840e-01
2.1213246e-01
1.1253486e-01
-4.4791203e-02
-1.6186769e-01
-2.0103829e-01
-1.7980489e-01
-1.3268983e-01
-8.9112078e-02
-5.6168960e-02
2.6608757e-02
1.6704776e-01
2.5001412e-01
2.2211321e-01
1.1331765e-01
-1.4975372e-02
-5.7555709e-02
1.7227301e-02
1.1795100e-01
1.5292325e-01
1.2338078e-01
7.8730021e-02
3.8535659e-02
1.7885640e-03
-1.1254566e-02
-2.1853079e-02
-1.1100381e-01
-2.6116898e-01
-3.4811654e-01
-2.9815343e-01
-1.3655686e-01
3.3256491e-02
1.0075766e-01
5.3009648e-02
-4.7726861e-03
2.0028479e-02
7.2876911e-02
6.9340199e-02
1.3041030e-02
-2.7142914e-02
4.7595405e-04
6.3868297e-02
1.1958388e-01
1.6458817e-01
2.0209750e-01
2.3245671e-01
2.7098975e-01
3.1810989e-01
3.5022380e-01
3.4486642e-01
2.8792408e-01
1.7534580e-01
1.3383068e-02
-1.5146262e-01
-2.5801229e-01
-3.1153801e-01
-3.4117389e-01
-3.3487509e-01
-2.8259717e-01
-2.0772961e-01
-1.3835525e-01
-8.5047506e-02
-4.8621541e-02
-2.5240364e-02
-8.7651691e-03
1.3474238e-03
5.9227684e-03
8.2925453e-03
7.7624782e-03
7.2927981e-03
1.1741915e-02
8.2863217e-03
-1.5700410e-02
-4.2121747e-02
-4.6644245e-02
-2.9606042e-02
-7.1441094e-03
1.6213095e-02
3.8005301e-02
3.8843491e-02
7.0778374e-03
-5.1522122e-02
-1.2258259e-01
-1.6973389e-01
-1.6568571e-01
-1.4045509e-01
-1.2541615e-01
-1.0241005e-01
-3.1181870e-02
8.7867790e-02
1.8200931e-01
1.8468384e-01
9.3695547e-02
-7.1127818e-03
-1.4565847e-03
1.0079585e-01
1.7205217e-01
1.5287049e-01
1.2182525e-01
1.4939704e-01
2.0811805e-01
2.4388774e-01
2.4757684e-01
2.2750161e-01
1.4896801e-01
3.8431690e-04
-1.5750087e-01
-2.4665835e-01
-2.3520162e-01
-1.7293096e-01
-1.4201959e-01
-1.5796512e-01
-1.7265538e-01
-1.5769578e-01
-1.1774576e-01
-6.0754007e-02
-5.3714446e-04
3.8348314e-02
4.9103718e-02
4.6940603e-02
5.4258618e-02
8.0668572e-02
1.0109284e-01
9.6696130e-02
5.9831677e-02
-1.2489830e-02
-6.8164812e-02
-5.5501443e-02
6.1107706e-04
3.9469757e-02
2.0061640e-02
-4.3808966e-02
-9.6570722e-02
-1.0407756e-01
-6.3860276e-02
-8.4940045e-03
2.8768455e-02
2.8087415e-02
-2.1214997e-02
-6.5677976e-02
-8.0121374e-02
-6.9838429e-02
-3.8165375e-02
-3.8311508e-02
-6.5717084e-02
-7.3612459e-02
-3.7167099e-02
3.2882341e-02
5.6435579e-02
2.0534649e-02
-2.9070788e-02
-7.9132645e-02
-5.5366613e-02
8.3608994e-02
2.3881589e-01
3.2025895e-01
3.1972631e-01
2.9028408e-01
2.8553953e-01
2.8544849e-01
2.4102291e-01
1.0735211e-01
-9.0149963e-02
-2.5177281e-01
-3.3247887e-01
-3.2766218e-01
-2.3803502e-01
-1.2996074e-01
-7.0927974e-02
-5.5442949e-02
-5.5038737e-02
-4.9555914e-02
-3.7288866e-02
-2.4228117e-02
-2.0635250e-02
-3.0500868e-02
-3.0806785e-02
-1.2411402e-02
2.5432172e-02
6.9225820e-02
7.6401863e-02
5.0016293e-02
7.8891344e-03
-4.8840629e-02
-7.5362671e-02
-3.1558834e-02
4.1929798e-02
8.4835428e-02
7.2876858e-02
1.5250393e-03
-7.2690078e-02
-8.6194607e-02
-5.3015623e-02
5.2806862e-03
7.7987377e-02
8.6472325e-02
3.1108739e-03
-6.5281567e-02
-6.2610475e-02
-1.7955401e-02
3.0978397e-03
-3.8412394e-02
-9.3687789e-02
-1.1571138e-01
-7.2924461e-02
-1.0890569e-03
1.1005844e-02
-1.3161689e-02
-3.0365959e-02
-5.3371876e-02
-3.1087375e-02
7.7168790e-02
2.0587750e-01
2.8018973e-01
2.8656701e-01
2.4651750e-01
2.0500333e-01
2.0818018e-01
2.2377181e-01
1.7362268e-01
4.7418720e-02
-9.1024993e-02
-1.8280330e-01
-2.1097685e-01
-1.8420935e-01
-1.5112716e-01
-1.5745756e-01
-1.7302956e-01
-1.5714021e-01
-1.2252643e-01
-8.9797904e-02
-5.2810398e-02
-1.0186103e-02
1.9934776e-02
3.2124943e-02
2.8877794e-02
2.0982787e-02
3.5999229e-02
5.6803672e-02
4.3844805e-02
2.0929138e-03
-4.8173301e-02
-7.9026669e-02
-8.1327966e-02
-7.9709563e-02
-7.7505923e-02
-6.2346204e-02
-4.5666059e-02
-1.7422778e-02
4.2179750e-02
8.7288255e-02
1.0045451e-01
1.2647282e-01
1.2724458e-01
4.3341824e-02
-6.7068622e-02
-1.2544259e-01
-1.0786668e-01
-5.0478793e-02
-2.5764422e-02
-4.3157606e-02
-5.7891714e-02
-1.6764386e-02
6.7110048e-02
8.9759553e-02
3.4056530e-02
-2.7785657e-03
2.5512971e-02
1.0306026e-01
1.8320555e-01
1.9904173e-01
1.5717382e-01
1.1538562e-01
1.1641728e-01
1.4898836e-01
1.6751625e-01
1.3432567e-01
1.4088304e-02
-1.4253393e-01
-2.4178792e-01
-2.5672752e-01
-2.0661998e-01
-1.2994207e-01
-7.9802910e-02
-6.8877772e-02
-5.5377329e-02
-2.0059286e-02
2.7935305e-02
5.5442210e-02
3.3090498e-02
-7.1462443e-03
-3.4810646e-02
-5.5499379e-02
-6.4322926e-02
-4.7121294e-02
-2.5061422e-02
-3.4181961e-02
-5.6300833e-02
-4.6492841e-02
-2.6553620e-02
-3.5007993e-02
-2.6543028e-02
4.0715785e-02
1.2404269e-01
1.5176845e-01
1.2316032e-01
1.1307025e-01
1.2834660e-01
8.4353948e-02
-2.0674085e-02
-1.1025885e-01
-1.6171689e-01
-2.0265925e-01
-2.4816582e-01
-2.6874425e-01
-2.3609971e-01
-1.1590624e-01
7.2362669e-02
2.2080680e-01
2.8317760e-01
2.7247856e-01
1.8757211e-01
7.2337050e-02
-1.2719898e-02
-6.7897053e-02
-6.7386388e-02
2.2552416e-02
1.4136636e-01
1.9384074e-01
1.9486275e-01
2.1614587e-01
2.3265865e-01
2.2075936e-01
1.8579739e-01
9.0885276e-02
-5.6773346e-02
-1.8118745e-01
-2.3801456e-01
-2.4576571e-01
-2.3497595e-01
-2.2447181e-01
-2.1726446e-01
-1.9152149e-01
-1.3424723e-01
-7.0163690e-02
-2.9338864e-02
-2.1062092e-03
2.8273247e-02
3.9559908e-02
2.3884825e-02
5.5964370e-03
1.0040291e-02
4.8261047e-02
9.7823068e-02
1.2339797e-01
8.9105237e-02
1.2209857e-02
-3.3121818e-02
-2.9148034e-02
9.4734719e-03
7.6595632e-02
1.1735981e-01
8.9484878e-02
2.7796178e-02
-2.5072133e-02
-5.5054895e-02
-6.8924203e-02
-8.9600611e-02
-1.2855656e-01
-1.6902832e-01
-1.9134860e-01
-1.9573044e-01
-1.9295434e-01
-1.6847094e-01
-1.0264688e-01
5.1555257e-03
1.3957633e-01
2.4436846e-01
2.6861859e-01
1.9681992e-01
8.5078356e-02
2.3760941e-02
1.3631775e-02
6.0538383e-02
1.6682098e-01
2.2985569e-01
1.8778947e-01
1.0249415e-01
4.4245601e-02
8.8587740e-03
1.6260976e-02
6.0299939e-02
3.0547569e-02
-7.1837335e-02
-1.4330159e-01
-1.5836012e-01
-1.3019167e-01
-9.0833387e-02
-9.1142367e-02
-1.2430725e-01
-1.4149186e-01
-1.2297195e-01
-8.8671115e-02
-5.1713779e-02
-6.1111826e-03
2.8193680e-02
1.6346975e-02
-2.7098037e-02
-5.6278987e-02
-4.5391249e-02
1.2464712e-02
7.5689845e-02
7.9831609e-02
4.6579422e-02
7.6424299e-02
1.9663341e-01
3.0002729e-01
3.0125398e-01
2.2632434e-01
9.6982123e-02
-5.3199564e-02
-1.4823385e-01
-1.8628084e-01
-2.0256395e-01
-2.0178588e-01
-1.9080873e-01
-1.8506519e-01
-1.8491854e-01
-1.8934005e-01
-1.9301377e-01
-1.6733443e-01
-9.4867883e-02
2.5263882e-02
1.6661777e-01
2.8901097e-01
3.5839196e-01
3.2785368e-01
1.9928490e-01
5.3303426e-02
-3.0829348e-02
-3.9494896e-02
-1.6310285e-02
-1.7150212e-02
-5.0066276e-02
-5.8170306e-02
1.3226530e-03
8.6565182e-02
1.3345918e-01
1.5957034e-01
1.6827737e-01
9.0811935e-02
-3.9547530e-02
-1.2269128e-01
-1.4209972e-01
-1.1896945e-01
-9.1388392e-02
-9.0199998e-02
-8.6432851e-02
-6.0381646e-02
-2.9134839e-02
-1.8249536e-02
-3.9781773e-02
-5.7845922e-02
-4.7080424e-02
-4.1021587e-02
-6.4695771e-02
-7.9516386e-02
-4.3414253e-02
2.6243148e-02
7.7229558e-02
7.3332197e-02
3.1884809e-02
-1.1357808e-03
-1.1198475e-03
3.4213440e-02
8.3120500e-02
1.0438147e-01
8.8126277e-02
6.8199303e-02
8.1594875e-02
1.0014439e-01
5.2605011e-02
-4.4922148e-02
-1.2480861e-01
-1.6619186e-01
-1.7634205e-01
-1.7509027e-01
-1.6867157e-01
-1.5716543e-01
-1.3908769e-01
-8.8829643e-02
1.8194933e-02
1.4975165e-01
2.1162431e-01
1.4341669e-01
-1.8258264e-03
-9.4029590e-02
-6.8719095e-02
4.2278716e-02
1.6186377e-01
2.2664651e-01
2.3897347e-01
2.1661679e-01
1.7817590e-01
1.4682403e-01
1.2840963e-01
1.0025712e-01
2.4006486e-02
-7.7594356e-02
-1.5102938e-01
-1.8639321e-01
-1.7314552e-01
-1.1725892e-01
-8.2657303e-02
-9.8887510e-02
-1.2024068e-01
-1.2246511e-01
-1.1160101e-01
-8.0470718e-02
-3.6385912e-02
-1.3478779e-02
-2.0085588e-02
-2.5590543e-02
-4.7863514e-03
5.5857857e-02
1.3689584e-01
1.7851769e-01
1.3752534e-01
3.8651991e-02
-3.5020032e-02
-1.2585278e-02
6.4156620e-02
7.7325059e-02
1.0063323e-02
-7.3708682e-02
-1.2500677e-01
-1.1621110e-01
-5.1446258e-02
1.9250456e-02
3.3816167e-02
-1.4866931e-02
-8.9732797e-02
-1.4093429e-01
-1.5382168e-01
-1.4259950e-01
-1.1658887e-01
-7.1992281e-02
2.3440193e-02
1.5292332e-01
2.5339355e-01
2.8755644e-01
2.3872741e-01
1.2209855e-01
-1.8029883e-02
-1.2182712e-01
-1.2442138e-01
-2.0826530e-02
9.0756731e-02
1.2481870e-01
8.1406267e-02
9.0492108e-03
8.7408500e-05
7.1881578e-02
1.3463871e-01
1.5358341e-01
1.2329060e-01
2.8544399e-02
-7.2191932e-02
-1.2928350e-01
-1.3807418e-01
-1.0630406e-01
-7.8893017e-02
-9.5437568e-02
-1.2946835e-01
-1.2996626e-01
-1.0400240e-01
-7.4525012e-02
-4.0037148e-02
-1.5197322e-02
-1.4610731e-02
-2.3225594e-02
-1.1727376e-02
4.9733325e-02
1.3079917e-01
1.4963374e-01
1.0678867e-01
4.7711822e-02
-1.6705722e-02
-6.4792587e-02
-8.2852249e-02
-6.6619833e-02
-3.6122034e-02
-2.2265183e-02
-6.7414227e-03
5.1022520e-02
1.2538338e-01
1.3182171e-01
7.5713855e-02
-1.8724716e-03
-8.5655286e-02
-1.3803044e-01
-1.5242396e-01
-1.3349408e-01
-9.1149756e-02
-5.3780110e-02
-1.8842937e-02
4.3108672e-02
1.3178447e-01
1.7423615e-01
1.1766471e-01
-2.4140130e-03
-1.3349431e-01
-2.1196838e-01
-1.7377231e-01
-1.7416965e-02
1.7054042e-01
2.6761446e-01
2.5847397e-01
2.2610248e-01
2.0290998e-01
1.8021522e-01
1.6445407e-01
1.1930902e-01
1.3359996e-02
-9.9408585e-02
-1.7256911e-01
-2.0263713e-01
-2.0112283e-01
-2.0172217e-01
-2.0846491e-01
-1.8598521e-01
-1.3704272e-01
-9.3853114e-02
-6.0811833e-02
-3.0145744e-02
8.0215876e-03
4.1728634e-02
5.2383952e-02
6.7698754e-02
1.1921946e-01
1.8251372e-01
2.0109029e-01
1.4039125e-01
1.7467181e-02
-8.6664700e-02
-1.1780567e-01
-8.9731306e-02
-3.9754688e-02
-9.4981631e-03
-3.6237700e-03
-6.5094778e-03
-8.2391599e-03
5.5322725e-03
3.6715310e-02
5.8329226e-02
3.8894429e-02
-3.2753314e-02
-1.2314703e-01
-1.6994579e-01
-1.8157175e-01
-1.8799943e-01
-1.5483411e-01
-8.6137507e-02
-6.4768917e-03
9.3525958e-02
1.9324439e-01
2.4644997e-01
2.1889138e-01
1.2770183e-01
4.9109646e-02
3.1907136e-02
6.9039259e-02
1.3580967e-01
1.7713094e-01
1.4594105e-01
7.7315620e-02
3.5400085e-02
2.2937140e-02
4.2003593e-02
8.4510469e-02
5.9245875e-02
-5.5025661e-02
-1.4676592e-01
-1.7179520e-01
-1.6958719e-01
-1.7313908e-01
-1.9941490e-01
-2.1842813e-01
-2.0177219e-01
-1.5903754e-01
-1.1513182e-01
-7.6640915e-02
-2.1167938e-02
5.7962779e-02
1.1545634e-01
1.1757042e-01
1.1350019e-01
1.4852880e-01
2.0820072e-01
2.5357207e-01
2.1892185e-01
8.7202769e-02
-4.9666641e-02
-1.1470393e-01
-1.1609924e-01
-1.0573498e-01
-1.1623941e-01
-1.2308117e-01
-1.0190022e-01
-5.6717263e-02
5.5242271e-03
6.3246636e-02
9.2921351e-02
8.2656304e-02
-1.0027181e-03
-1.3828686e-01
-2.3641107e-01
-2.4043269e-01
-1.5986587e-01
-3.9883027e-02
7.6865098e-02
1.7344245e-01
2.4461735e-01
2.6517052e-01
1.9020434e-01
3.9106771e-02
-7.8847744e-02
-1.0561296e-01
-7.9646980e-02
-2.3000099e-02
4.4639978e-02
8.7061165e-02
1.1377070e-01
1.3976798e-01
1.5816110e-01
1.7109252e-01
1.6481424e-01
1.3033077e-01
5.2588834e-02
-7.5451872e-02
-1.7853528e-01
-2.0446752e-01
-1.6083699e-01
-1.0442466e-01
-9.1227524e-02
-9.8509532e-02
-1.0554586e-01
-1.0432721e-01
-8.9520431e-02
-7.0574411e-02
-6.5919356e-02
-9.1056879e-02
-1.1615430e-01
-1.0961163e-01
-4.6104323e-02
8.3472869e-02
2.1748090e-01
3.0592213e-01
3.1942246e-01
2.2829402e-01
9.7095414e-02
3.0112445e-02
2.1261145e-02
3.8008762e-03
-3.0296717e-02
-6.2084916e-02
-8.4234989e-02
-8.4163313e-02
-6.6298765e-02
-5.4361063e-02
-5.0415643e-02
-5.7492658e-02
-1.0047963e-01
-1.6376176e-01
-2.0822988e-01
-2.1593224e-01
-1.7506696e-01
-8.2975053e-02
1.5770787e-02
8.1336719e-02
1.1572396e-01
7.2918109e-02
-4.3730507e-02
-1.0421700e-01
-5.7228688e-02
3.3922022e-02
1.5541508e-01
2.8441580e-01
3.4910225e-01
3.3740659e-01
2.8080522e-01
2.0235235e-01
1.2135773e-01
7.1590150e-02
4.7525301e-02
-2.1749283e-02
-1.4677988e-01
-2.5178195e-01
-2.8216450e-01
-2.4596879e-01
-1.7320131e-01
-9.4375769e-02
-3.8203625e-02
-2.0875504e-02
-3.7192611e-02
-4.3921154e-02
-2.6758013e-02
-4.9912682e-03
1.6927395e-02
5.2686178e-03
-4.6563373e-02
-7.8903064e-02
-4.1553457e-02
5.7267979e-02
1.5993077e-01
2.2231171e-01
2.0661181e-01
1.0534698e-01
5.7545130e-03
-5.9056064e-03
4.0811000e-02
5.8064656e-02
2.0706799e-02
-3.0467781e-02
-5.7011327e-02
-5.5068583e-02
-5.0489815e-02
-7.5780671e-02
-1.2648747e-01
-1.6733272e-01
-1.8082996e-01
-1.9104050e-01
-2.1971017e-01
-2.1798770e-01
-1.3956908e-01
1.2349014e-02
1.7312291e-01
2.3801623e-01
2.0892427e-01
1.2323188e-01
-9.2788960e-03
-1.1184083e-01
-1.2553845e-01
-5.9977636e-02
6.0193332e-02
1.7759344e-01
2.4100105e-01
2.5196246e-01
2.2858971e-01
2.0191001e-01
2.0280674e-01
2.1458518e-01
1.8023781e-01
5.6208300e-02
-1.1774150e-01
-2.5281892e-01
-2.9802648e-01
-2.3316126e-01
-1.1297750e-01
-2.9607532e-02
-6.4070127e-03
-2.8916073e-02
-7.0887350e-02
-8.8737234e-02
-5.9102332e-02
-1.2511811e-02
1.2832573e-02
-1.4765246e-03
-4.3689061e-02
-5.2857355e-02
7.2493682e-04
7.6266777e-02
1.3469288e-01
1.5394560e-01
1.2110258e-01
4.7086095e-02
-1.6752678e-02
-1.2317703e-02
2.3774036e-02
-3.9079439e-03
-1.0517427e-01
-1.8045546e-01
-1.7255851e-01
-1.0466202e-01
-8.2657569e-03
3.8803787e-02
6.8618102e-03
-2.0382884e-02
1.0006935e-02
5.0184021e-02
1.7050190e-02
-5.6801103e-02
-6.5865735e-02
6.5566390e-03
1.0392383e-01
1.6918011e-01
1.6169547e-01
4.9018842e-02
-1.1362396e-01
-2.2872478e-01
-2.5438161e-01
-1.8102290e-01
-2.2428299e-02
1.6056183e-01
2.7688776e-01
2.8880891e-01
2.2869484e-01
1.6402673e-01
1.5094760e-01
1.7155435e-01
1.2321539e-01
-2.4491894e-02
-1.8297435e-01
-2.8352255e-01
-2.9330250e-01
-2.1059253e-01
-9.2739535e-02
-5.6546909e-03
4.3848664e-02
5.9964943e-02
3.3458031e-02
-7.4519302e-03
-3.5427241e-02
-5.6926479e-02
-7.5139439e-02
-7.4077789e-02
-4.1542425e-02
2.2748205e-02
1.0780494e-01
1.6985872e-01
1.7518948e-01
1.1713890e-01
1.4008540e-02
-6.8345943e-02
-9.8898389e-02
-9.7324822e-02
-8.5476563e-02
-6.6095420e-02
-4.7054720e-02
-5.5117036e-02
-6.8977225e-02
-5.2552587e-02
1.2062082e-03
6.1324306e-02
8.7005292e-02
4.4048857e-02
-7.6407596e-02
-1.8345638e-01
-2.0288670e-01
-1.4601759e-01
-4.6951651e-02
5.7685650e-02
1.6473067e-01
2.6013141e-01
2.7993100e-01
1.9047494e-01
5.3778336e-02
-7.2721950e-02
-1.7559208e-01
-1.8537114e-01
-6.6349065e-02
9.8831359e-02
2.1602943e-01
2.4986347e-01
2.2018723e-01
1.7140755e-01
1.4218565e-01
1.2362948e-01
4.5326518e-02
-9.0499267e-02
-1.9628459e-01
-2.3952657e-01
-2.2148461e-01
-1.4212455e-01
-5.6546403e-02
-1.1200284e-02
3.5018388e-03
-6.2966811e-03
-2.5103652e-02
-3.7022964e-02
-2.7498042e-02
9.5685479e-04
3.7186561e-03
-2.6739357e-02
-4.6603493e-02
-2.2782594e-02
4.4834241e-02
1.0579420e-01
9.8918178e-02
3.2684432e-02
-3.4158650e-02
-6.2252012e-02
-4.8090144e-02
-1.0956794e-02
8.2272496e-03
-1.1851719e-02
-3.8049943e-02
-3.0578728e-02
-5.9064562e-03
-1.3338112e-02
-5.0913685e-02
-7.6214501e-02
-8.7863642e-02
-1.0168835e-01
-8.8009244e-02
-4.2963570e-02
-5.1312695e-03
2.9020377e-03
-1.4153375e-02
2.2239932e-03
9.2406968e-02
1.9733892e-01
2.3204857e-01
1.6729312e-01
4.7285713e-02
-4.1678580e-02
-6.3073497e-02
-2.0621182e-02
5.1469103e-02
8.4809515e-02
6.7809055e-02
3.6351634e-02
1.8058315e-02
1.6880460e-02
4.1793843e-02
8.2302788e-02
6.7368881e-02
-1.6070752e-02
-9.3518296e-02
-1.1064517e-01
-6.2238481e-02
-1.0811102e-03
7.0157729e-03
-2.3245729e-02
-3.7072741e-02
-2.6024018e-02
-1.5161905e-02
-3.3681365e-02
-7.0937520e-02
-8.5976859e-02
-7.6730024e-02
-6.3453410e-02
-4.8364413e-02
-8.5579716e-03
4.5734632e-02
7.3509009e-02
5.5788283e-02
8.3215015e-03
-1.0429413e-02
8.1010852e-03
1.9307049e-02
1.4913475e-02
4.0705035e-03
-9.5928506e-04
1.8167474e-02
6.4136286e-02
1.0085013e-01
7.8160308e-02
6.4488196e-03
-6.0594401e-02
-9.5974547e-02
-9.1717572e-02
-6.2117362e-02
-6.4317573e-02
-1.2487948e-01
-1.7442156e-01
-1.4483911e-01
-5.5705519e-02
5.5239270e-02
1.3717564e-01
1.2027986e-01
2.7353264e-02
-5.8875809e-02
-8.3905629e-02
-5.8817134e-03
1.2179809e-01
1.7682204e-01
1.2496727e-01
4.2835438e-02
3.9848369e-02
1.1064073e-01
1.8709966e-01
2.3425478e-01
1.9687945e-01
7.7382005e-02
-4.0227558e-02
-1.0476013e-01
-1.1897441e-01
-9.1102504e-02
-7.3517047e-02
-1.2014460e-01
-1.7574691e-01
-1.8372210e-01
-1.6324661e-01
-1.3612680e-01
-8.9975164e-02
-1.4582153e-02
5.3725580e-02
9.0648954e-02
1.2583700e-01
1.4558555e-01
1.1230951e-01
6.6598506e-02
5.6206282e-02
4.1643933e-02
-2.1411820e-02
-8.0277639e-02
-9.2700472e-02
-7.2038326e-02
-3.8026961e-02
-2.0075158e-02
-1.6788898e-02
-1.3530742e-03
3.0537224e-02
7.1060812e-02
8.6235814e-02
2.4756365e-02
-8.6335844e-02
-1.5705639e-01
-1.3658405e-01
-6.9749196e-02
-2.7842134e-02
-1.2222527e-02
2.2592867e-02
1.2632882e-01
2.5494714e-01
2.7925636e-01
1.8278910e-01
7.7728719e-02
5.1448736e-02
5.7915703e-02
3.3470342e-03
-8.8604224e-02
-1.4944363e-01
-1.6915828e-01
-1.6225973e-01
-1.2421263e-01
-4.3776346e-02
2.6030630e-02
2.7588120e-02
1.3672596e-02
9.4833718e-03
-2.2532227e-02
-4.5157607e-02
-2.7536951e-02
6.9032648e-03
4.1609353e-02
3.9981519e-02
-2.1037375e-02
-8.6918691e-02
-1.1359754e-01
-1.0720085e-01
-7.1601536e-02
-2.0141069e-02
1.2478094e-02
1.8735414e-02
3.4443276e-02
9.4525303e-02
1.7850108e-01
2.1595199e-01
1.6183424e-01
3.2428498e-02
-9.4668807e-02
-1.4522120e-01
-1.2275654e-01
-9.7938424e-02
-1.0994732e-01
-1.2407994e-01
-1.0284798e-01
-3.7002607e-02
7.4119406e-02
1.8558678e-01
2.1296552e-01
1.3840677e-01
1.0391367e-02
-9.7624579e-02
-1.4381222e-01
-1.3925921e-01
-1.3315885e-01
-1.6250842e-01
-1.6769515e-01
-9.4520006e-02
4.6871146e-02
2.0382795e-01
2.7847250e-01
2.1650504e-01
1.0339519e-01
5.7628941e-02
5.4917603e-02
4.7396488e-02
8.4783724e-02
1.5622441e-01
1.5925173e-01
8.5827194e-02
7.5670152e-04
-5.4101822e-02
-3.3982393e-02
1.9268440e-02
-6.3778992e-04
-9.6288831e-02
-1.7755433e-01
-1.6846433e-01
-7.8146534e-02
1.2511378e-02
2.6137154e-02
-3.3829954e-02
-9.6960337e-02
-1.2393930e-01
-1.1578572e-01
-7.7471341e-02
-2.7503143e-02
5.7097060e-03
8.2722109e-03
2.1266206e-05
1.6625945e-02
8.3304138e-02
1.6428808e-01
1.7126755e-01
8.1978046e-02
-4.9273090e-02
-1.3361012e-01
-1.0571017e-01
-5.2032350e-03
5.6668538e-02
2.2332912e-02
-6.5881809e-02
-1.2489393e-01
-1.0053418e-01
-2.5070105e-03
1.2033883e-01
1.9074070e-01
1.4011566e-01
7.7616538e-03
-1.0712406e-01
-1.5770660e-01
-1.5392325e-01
-1.5476856e-01
-1.7881346e-01
-1.7068179e-01
-8.9057675e-02
6.1615571e-02
2.1191576e-01
2.7716289e-01
2.2952196e-01
1.2686976e-01
6.2232282e-02
4.6739481e-02
5.0045411e-02
7.4237832e-02
1.1012036e-01
1.1223458e-01
6.2966035e-02
-7.9435625e-04
-2.9996546e-02
-1.4117086e-02
1.4831100e-02
1.7700663e-02
-2.6320421e-02
-7.1986707e-02
-6.3126414e-02
-5.7791958e-03
5.5611441e-02
5.8572473e-02
-1.6869630e-02
-1.0687303e-01
-1.5181511e-01
-1.5953430e-01
-1.5434802e-01
-1.2605993e-01
-7.8506449e-02
-5.5464860e-02
-6.1442676e-02
-7.7820580e-02
-7.3829425e-02
1.6492728e-03
1.0982444e-01
1.2977575e-01
3.7680245e-02
-4.3585167e-02
-2.0943332e-05
1.2087678e-01
1.6476853e-01
8.6131323e-02
-3.7324659e-02
-1.2384832e-01
-1.2599558e-01
-6.5421954e-02
2.1780322e-02
1.1330713e-01
1.4670029e-01
8.5105899e-02
-2.5199247e-02
-8.5993513e-02
-5.4168276e-02
-1.2896804e-02
-4.2445849e-02
-9.7667656e-02
-7.3871677e-02
2.9930067e-02
1.2262685e-01
1.4541576e-01
6.6704892e-02
-6.4260495e-02
-1.1935990e-01
-7.2047548e-02
2.1966449e-02
1.0994141e-01
1.4385281e-01
1.2749177e-01
1.0169887e-01
1.0490936e-01
1.3159664e-01
1.3677354e-01
8.9661404e-02
-3.7727752e-03
-1.0463244e-01
-1.6879084e-01
-1.5178110e-01
-6.3252499e-02
5.6293303e-03
1.0445268e-02
-2.7797661e-02
-7.5455336e-02
-8.0819394e-02
-4.6670752e-02
-2.6051604e-02
-3.4911100e-02
-5.6634656e-02
-7.0239537e-02
-5.1653681e-02
-5.9124138e-03
3.2785648e-02
5.7906222e-02
7.8654230e-02
5.6037681e-02
-2.7654255e-02
-1.0037553e-01
-9.3266289e-02
-1.1385617e-02
7.1192278e-02
8.0733009e-02
2.6497044e-02
-1.9703140e-02
-1.0213643e-02
3.3926028e-02
7.5710119e-02
8.8460906e-02
7.6245955e-02
2.1402934e-02
-1.1635169e-01
-2.3709254e-01
-2.3578833e-01
-1.6581265e-01
-1.1571126e-01
-8.4033448e-02
-1.2021200e-02
1.0274867e-01
1.8991475e-01
1.8715656e-01
8.0819827e-02
-5.6397882e-02
-9.6692190e-02
-1.0170702e-02
1.1917835e-01
1.8816060e-01
1.8917626e-01
1.7035575e-01
1.6944665e-01
2.1013642e-01
2.3554196e-01
1.9377722e-01
7.6257489e-02
-8.3528605e-02
-2.0115293e-01
-2.4646565e-01
-2.1886304e-01
-1.1840880e-01
-5.4746059e-03
4.4490652e-02
1.1758163e-02
-5.0204071e-02
-8.5102705e-02
-1.0183992e-01
-1.2143581e-01
-1.3419240e-01
-1.2986999e-01
-1.2384699e-01
-1.2466957e-01
-9.7988833e-02
-1.5925491e-02
7.6002540e-02
1.0916566e-01
7.7312387e-02
4.4902303e-02
5.7431317e-02
9.8962593e-02
1.4287742e-01
1.6156505e-01
1.2560047e-01
3.2173879e-02
-6.4293345e-02
-9.3152938e-02
-5.8935390e-02
-3.7229042e-02
-3.8248367e-02
-3.7302752e-02
-4.5929122e-02
-7.4401110e-02
-1.4317163e-01
-2.1240403e-01
-2.0253779e-01
-1.1220164e-01
-2.0468973e-02
5.2246318e-02
1.4230618e-01
1.9966169e-01
1.9807807e-01
1.4557394e-01
4.0091155e-02
-2.9058422e-02
8.6311088e-03
9.3739678e-02
1.3524770e-01
1.1182127e-01
6.3650115e-02
5.9850670e-02
1.2925723e-01
1.9577495e-01
1.7664239e-01
7.0916422e-02
-5.4436675e-02
-1.3756090e-01
-1.8067161e-01
-1.7791388e-01
-1.3194116e-01
-1.0816244e-01
-1.3501310e-01
-1.6272623e-01
-1.6374125e-01
-1.5303756e-01
-1.3649415e-01
-1.1675037e-01
-8.3758864e-02
-4.6158241e-02
-2.5064420e-02
4.5281139e-02
1.8077911e-01
2.5869670e-01
2.4942401e-01
2.2551398e-01
1.8086499e-01
8.5041864e-02
-1.2962750e-02
-4.0792467e-02
-1.3784483e-02
-2.5051303e-02
-1.1627358e-01
-2.3178715e-01
-2.8792818e-01
-2.5869103e-01
-1.5869299e-01
-3.7298702e-02
4.6763559e-02
1.1753701e-01
1.6546672e-01
1.2261619e-01
1.2719225e-02
-9.1558686e-02
-1.1940102e-01
-4.7222053e-02
5.3263236e-02
1.3610657e-01
2.0754240e-01
2.4574493e-01
2.2912400e-01
1.6292558e-01
6.1445621e-02
-3.7383862e-02
-6.8800036e-02
-2.4064451e-02
2.9057795e-02
5.7854296e-02
7.0477563e-02
8.9542615e-02
1.5028562e-01
2.1693342e-01
1.9334192e-01
3.6873048e-02
-1.7740551e-01
-3.1871954e-01
-3.3068579e-01
-2.4555025e-01
-1.3281084e-01
-4.0590132e-02
4.8310992e-02
9.8393714e-02
5.2726424e-02
-3.8368123e-02
-1.0795862e-01
-1.4093854e-01
-1.5113684e-01
-1.2765184e-01
-6.5322765e-02
3.7273969e-02
1.7253433e-01
2.4712021e-01
2.0681875e-01
1.1548907e-01
4.6583869e-02
1.1937096e-02
-2.6216501e-03
4.6672134e-03
1.8591274e-02
-3.5220556e-03
-6.2616771e-02
-1.1058641e-01
-1.3421076e-01
-1.4204368e-01
-1.1199833e-01
-5.3220191e-02
-1.1942742e-02
1.9686280e-02
3.3236296e-02
-1.3506288e-02
-7.8278566e-02
-1.0830150e-01
-1.0694358e-01
-6.5876673e-02
1.6108881e-02
8.2215305e-02
6.0538769e-02
-4.5555130e-02
-1.4840557e-01
-1.6879035e-01
-1.0974536e-01
-1.7718691e-02
1.0582092e-01
2.4781491e-01
3.3858676e-01
3.3641735e-01
2.6457191e-01
1.9652530e-01
1.8328675e-01
1.7953056e-01
1.0110698e-01
-4.1020038e-02
-1.6573216e-01
-2.3669764e-01
-2.4311088e-01
-1.7762636e-01
-8.3807386e-02
-4.0652343e-02
-4.8179340e-02
-4.8356248e-02
-3.6435945e-02
-2.2070380e-02
5.0343205e-03
3.7158206e-02
3.1768591e-02
-2.1303536e-02
-6.6488190e-02
-7.4303363e-02
-5.1744938e-02
-1.2370578e-03
6.8487294e-02
1.3734874e-01
1.5325267e-01
9.9075130e-02
4.4479012e-02
3.0253290e-02
3.3799611e-02
1.4813580e-02
-3.4901787e-02
-7.8586689e-02
-9.4772365e-02
-9.9460511e-02
-1.0978160e-01
-1.0165751e-01
-8.7562225e-02
-1.1217332e-01
-1.3951270e-01
-1.2012056e-01
-6.9025448e-02
-3.0800434e-02
-7.5897914e-03
5.5588045e-02
1.5007438e-01
1.9770835e-01
1.6229905e-01
6.6595204e-02
-2.7735705e-02
-6.0278586e-02
-3.2642134e-02
1.0351587e-02
7.0789746e-02
1.4664881e-01
1.7086638e-01
1.2413314e-01
6.9248356e-02
6.0683351e-02
1.0988064e-01
1.6267939e-01
1.2698514e-01
1.6107478e-02
-8.1000106e-02
-1.3933083e-01
-1.5761805e-01
-1.3730144e-01
-1.3013130e-01
-1.5452183e-01
-1.6054088e-01
-1.2801551e-01
-8.2118667e-02
-3.8106804e-02
5.7219125e-03
3.9309424e-02
5.6496283e-02
7.5314733e-02
1.0984049e-01
1.4017259e-01
1.3763917e-01
1.0677334e-01
6.0767866e-02
2.7904911e-03
-6.0947914e-02
-1.0584256e-01
-1.0240095e-01
-6.8663001e-02
-6.2308049e-02
-9.3917816e-02
-1.2143238e-01
-1.1536647e-01
-6.6743636e-02
7.6154842e-03
6.0846834e-02
4.9976667e-02
-3.5866210e-03
-3.0548774e-02
-6.6943641e-03
3.3109784e-02
4.1084688e-02
8.5317418e-03
-1.6975411e-02
1.1483567e-02
8.6028118e-02
1.5401899e-01
1.5582488e-01
9.0770615e-02
-1.2438215e-02
-1.3209655e-01
-1.9540577e-01
-1.6929259e-01
-1.0254320e-01
-2.6841736e-02
3.3235067e-02
6.6020700e-02
1.1128998e-01
1.9906874e-01
2.7998879e-01
2.7366136e-01
1.8277759e-01
6.6929228e-02
-2.6119536e-02
-6.5830263e-02
-7.1063958e-02
-8.1085601e-02
-1.0734455e-01
-1.5194984e-01
-1.8126084e-01
-1.6185198e-01
-1.1182743e-01
-6.1286237e-02
-4.0217339e-02
-3.9010933e-02
-1.3458407e-02
4.0515295e-02
1.0413678e-01
1.5437279e-01
1.4390637e-01
6.5610016e-02
-2.4927275e-02
-8.0727695e-02
-9.5778752e-02
-8.6196162e-02
-7.1405510e-02
-6.9610641e-02
-8.1716733e-02
-9.2122450e-02
-8.2067840e-02
-2.7359475e-02
8.1692075e-02
1.8623129e-01
1.9349184e-01
9.7363962e-02
-2.3923071e-02
-1.1280789e-01
-1.6366482e-01
-1.8819296e-01
-1.8467373e-01
-1.1620431e-01
4.6756838e-02
2.3640343e-01
3.3196578e-01
2.9172928e-01
1.6943223e-01
4.3052143e-02
-4.6325692e-02
-8.1651063e-02
-6.5974360e-02
-8.1720700e-03
4.6801845e-02
3.2186752e-02
9.4162995e-03
4.8876459e-02
1.2304946e-01
1.9948974e-01
2.0510334e-01
9.5743489e-02
-5.5394911e-02
-1.6107624e-01
-2.0478481e-01
-2.2255548e-01
-2.3767779e-01
-2.5183534e-01
-2.4846021e-01
-2.3557278e-01
-2.4837262e-01
-2.7041999e-01
-2.7047614e-01
-2.3864166e-01
-1.5229668e-01
-1.0072718e-03
