-1.7744563e-01
-1.6929071e-01
-1.5525598e-01
-1.3330972e-01
-1.0115055e-01
-6.0588414e-02
-2.1839706e-02
1.4274403e-02
3.6389512e-02
3.3541519e-02
2.6659757e-02
2.1500007e-02
1.1894716e-02
7.2877184e-03
1.8061451e-02
4.2956692e-02
6.9584694e-02
9.4563072e-02
1.1345543e-01
1.2555485e-01
1.3654401e-01
1.2942416e-01
1.0033422e-01
7.1553012e-02
5.7809629e-02
6.3082459e-02
7.8267900e-02
9.2502638e-02
9.8032350e-02
9.7891985e-02
9.4339239e-02
6.6746367e-02
1.6607648e-02
-3.0722226e-02
-6.2142513e-02
-7.8772154e-02
-8.7092976e-02
-8.4876907e-02
-7.4906804e-02
-5.7948159e-02
-3.5303298e-02
-2.9457827e-02
-4.2941762e-02
-5.4980928e-02
-5.5080607e-02
-4.8897540e-02
-4.6921745e-02
-4.6683904e-02
-4.7852776e-02
-4.8251415e-02
-4.3616187e-02
-4.8196758e-02
-6.5745146e-02
-8.2802828e-02
-9.1459342e-02
-9.2089986e-02
-8.7802122e-02
-7.8071797e-02
-7.4184462e-02
-7.8550873e-02
-7.2111999e-02
-5.1548559e-02
-2.0246058e-02
2.3838790e-02
8.0675461e-02
1.4171595e-01
1.9768609e-01
2.4770554e-01
2.7303621e-01
2.7099340e-01
2.5323227e-01
2.0465003e-01
1.3252019e-01
6.4280209e-02
1.4175385e-02
-2.4565030e-02
-6.5482453e-02
-1.0138845e-01
-1.2382897e-01
-1.2947150e-01
-1.2008553e-01
-1.0726240e-01
-9.7683975e-02
-8.8821353e-02
-7.5112449e-02
-5.9034333e-02
-4.4102420e-02
-2.6506048e-02
-9.3786664e-03
7.5503964e-03
2.0133455e-02
1.4362815e-02
-2.6797898e-03
-1.5321666e-02
-1.5877928e-02
-1.1202729e-02
-9.5198029e-03
-4.4892637e-03
1.0310389e-03
4.1096319e-03
4.0209073e-03
-2.8107925e-03
-5.6956724e-03
5.1183675e-03
2.7888841e-02
5.1130045e-02
6.8628994e-02
8.6286355e-02
1.0110958e-01
1.0991477e-01
1.0816000e-01
8.9442593e-02
6.2562706e-02
3.5769784e-02
1.3046703e-02
-7.9706093e-03
-3.2046272e-02
-5.3154913e-02
-6.8657569e-02
-7.9813800e-02
-8.5893546e-02
-8.3921414e-02
-7.3905984e-02
-6.3027105e-02
-5.5351777e-02
-5.3130554e-02
-5.2994106e-02
-4.8603661e-02
-4.3648608e-02
-3.9799901e-02
-3.6925103e-02
-3.4800307e-02
-2.9045544e-02
-1.9122375e-02
-7.1017502e-03
-2.1988301e-05
9.8264760e-04
3.5885590e-03
8.0962637e-03
1.4667247e-02
1.8819751e-02
1.4671004e-02
1.0199797e-02
1.4873086e-02
3.0841777e-02
4.8395120e-02
6.2193938e-02
7.4945401e-02
8.3399250e-02
8.8914799e-02
9.2784269e-02
9.7161256e-02
9.8184996e-02
8.5159581e-02
6.0902717e-02
3.0357579e-02
1.2629875e-03
-1.9348722e-02
-3.4149637e-02
-4.2945543e-02
-4.8690813e-02
-5.3087219e-02
-5.4517141e-02
-5.5620490e-02
-5.7436187e-02
-6.3641721e-02
-7.0636188e-02
-7.0800832e-02
-6.6407905e-02
-5.9198391e-02
-5.0987545e-02
-3.6804196e-02
-1.4461746e-02
4.3760096e-03
1.5112892e-02
1.9100015e-02
2.1782193e-02
2.8880390e-02
3.6128479e-02
3.9434961e-02
3.7607276e-02
3.4144677e-02
3.4434290e-02
3.7619151e-02
4.0766154e-02
3.9126842e-02
3.4372711e-02
3.0134679e-02
2.7121936e-02
2.7888591e-02
2.6339085e-02
2.1151464e-02
1.5068260e-02
3.9399496e-03
-1.0597967e-02
-2.4427014e-02
-3.2068111e-02
-3.5501670e-02
-4.1267056e-02
-4.6036264e-02
-5.0017988e-02
-5.1696066e-02
-4.7107261e-02
-4.0326306e-02
-3.7732510e-02
-4.1918030e-02
-4.7442043e-02
-5.1509518e-02
-5.3026704e-02
-4.9917482e-02
-4.6979927e-02
-4.1737478e-02
-2.9381995e-02
-1.4941242e-02
-4.3761917e-03
2.8439534e-03
1.4469617e-02
2.9813745e-02
4.7047465e-02
7.2290875e-02
1.0322675e-01
1.3360415e-01
1.5414530e-01
1.5212946e-01
1.2031179e-01
6.8282591e-02
2.3957422e-02
-9.1274312e-04
-1.2892486e-02
-1.8364283e-02
-2.5899661e-02
-3.4459811e-02
-3.9631840e-02
-4.5358775e-02
-5.5242003e-02
-6.5415131e-02
-6.8045429e-02
-6.4996140e-02
-5.8699917e-02
-4.9080968e-02
-4.2902391e-02
-3.8247881e-02
-3.0616235e-02
-2.5847793e-02
-2.8279582e-02
-3.0462041e-02
-2.1350957e-02
-5.8763449e-03
8.4437849e-03
1.9694247e-02
2.3667164e-02
2.5611416e-02
2.8987491e-02
2.7685792e-02
1.6410019e-02
-2.3015774e-03
-1.7547256e-02
-2.6204239e-02
-2.6864027e-02
-1.7433804e-02
-2.2833881e-03
2.0253774e-02
4.8564618e-02
7.2619905e-02
7.4855699e-02
5.1503908e-02
2.7056867e-02
8.7174364e-03
-6.7428852e-03
-1.5701598e-02
-2.2176992e-02
-2.3280814e-02
-1.4777835e-02
-1.7828833e-03
7.6511728e-03
1.2226413e-02
1.8404998e-02
2.4733056e-02
2.4124824e-02
1.2548709e-02
-7.8950350e-03
-2.6395741e-02
-3.8017161e-02
-4.8801501e-02
-6.4008830e-02
-7.6404290e-02
-7.5697113e-02
-6.7187644e-02
-5.5678739e-02
-4.2099056e-02
-3.0157824e-02
-1.8142459e-02
-6.4283264e-03
1.9531687e-03
3.6967233e-03
3.4557869e-03
1.4512405e-02
3.7623741e-02
6.8495237e-02
9.6411152e-02
1.0917796e-01
1.1558564e-01
1.2333308e-01
1.2797917e-01
1.1764629e-01
9.0231612e-02
6.1413000e-02
3.6547661e-02
1.4714950e-02
-4.0604170e-03
-2.1426820e-02
-3.4077300e-02
-3.9751112e-02
-4.1624982e-02
-4.5232781e-02
-4.5127706e-02
-3.5300729e-02
-2.4935624e-02
-1.8604583e-02
-1.7750541e-02
-2.4076580e-02
-3.0304243e-02
-3.0563603e-02
-2.6401626e-02
-2.3859295e-02
-2.0743610e-02
-9.4327724e-03
6.8834371e-03
2.1602207e-02
2.5631393e-02
1.5836208e-02
4.8740910e-03
-1.0257652e-03
-7.0706329e-03
-1.8713926e-02
-3.0914328e-02
-3.4289043e-02
-3.1372505e-02
-2.5999019e-02
-2.3315745e-02
-2.5021842e-02
-2.2172173e-02
-1.2553566e-02
-4.0912709e-04
8.4273319e-03
1.3116034e-02
1.6487224e-02
1.9377837e-02
2.4709972e-02
2.4358311e-02
1.2498156e-02
-2.2015027e-03
-1.4167726e-02
-2.3680643e-02
-3.2173214e-02
-3.4759790e-02
-2.8217205e-02
-1.5995082e-02
1.3608774e-03
1.7151865e-02
2.6468155e-02
3.5100079e-02
4.4542664e-02
5.0296917e-02
4.9242549e-02
4.7147219e-02
4.9230335e-02
5.6516643e-02
6.7067430e-02
6.5154530e-02
4.7777050e-02
2.9954985e-02
1.5287381e-02
-3.3800208e-03
-2.9677983e-02
-5.0649645e-02
-5.7184957e-02
-5.3553311e-02
-3.8853152e-02
-1.9279155e-02
-1.6935862e-03
1.6625967e-02
3.5802476e-02
5.1582575e-02
5.6338640e-02
5.1152602e-02
4.0097908e-02
2.6258882e-02
1.5559614e-02
2.5333774e-03
-1.4674207e-02
-3.2266730e-02
-5.0847314e-02
-6.9136816e-02
-8.6000374e-02
-9.7610753e-02
-1.0562381e-01
-1.1483404e-01
-1.2474328e-01
-1.3614284e-01
-1.4630243e-01
-1.5579794e-01
-1.6948268e-01
-1.8571321e-01
-2.0135316e-01
-2.1123942e-01
-2.1620727e-01
-2.2215125e-01
-2.3120859e-01
-2.4101705e-01
-2.3949742e-01
-2.2347586e-01
-1.9805519e-01
-1.5982313e-01
-1.0227065e-01
-2.0233007e-02
8.0417452e-02
1.9714780e-01
3.2750800e-01
4.5207954e-01
5.6553806e-01
6.5927525e-01
7.0866410e-01
7.0805706e-01
6.7494277e-01
6.2967133e-01
5.6154841e-01
4.5203883e-01
2.9996217e-01
1.1664879e-01
-6.7225001e-02
-2.3617856e-01
-3.9004037e-01
-5.2142338e-01
-6.2357569e-01
-6.8842255e-01
-7.2143666e-01
-7.3150258e-01
-7.2296724e-01
-7.0569339e-01
-6.7397624e-01
-6.1908795e-01
-5.3730885e-01
-4.2407919e-01
-2.7758779e-01
-9.8481246e-02
8.2512846e-02
2.3282749e-01
3.4684430e-01
4.2347111e-01
4.8265853e-01
5.4060280e-01
5.7976892e-01
5.7948053e-01
5.5012171e-01
5.2137405e-01
5.0388488e-01
5.0022414e-01
5.0623240e-01
5.1601661e-01
5.2905780e-01
5.2282978e-01
4.7223063e-01
3.7373266e-01
2.5417087e-01
1.5606480e-01
8.4798437e-02
3.0843423e-02
-7.1121252e-03
-3.4608243e-02
-5.9545142e-02
-1.0208244e-01
-1.5558255e-01
-2.0078419e-01
-2.4036291e-01
-2.6889386e-01
-2.8665172e-01
-2.9818721e-01
-3.0043134e-01
-2.8933350e-01
-2.6069860e-01
-2.2945308e-01
-2.0809809e-01
-1.8775092e-01
-1.6131885e-01
-1.3240525e-01
-1.0957069e-01
-9.1507625e-02
-8.1188540e-02
-7.8029084e-02
-7.5002039e-02
-8.5076292e-02
-1.0268432e-01
-1.0500032e-01
-8.5245475e-02
-5.2506143e-02
-2.1003495e-02
1.2371033e-02
3.6508148e-02
3.9494363e-02
3.2715848e-02
9.0393381e-03
-2.5330427e-02
-4.4820163e-02
-4.1516217e-02
-2.1267752e-02
8.4226659e-03
4.8460567e-02
8.2042817e-02
9.8429435e-02
1.0858646e-01
9.7092103e-02
6.1464729e-02
3.0683468e-02
1.8124657e-02
1.6767816e-02
1.9758907e-02
2.9819067e-02
3.5932537e-02
3.1622394e-02
3.0395372e-02
2.8368543e-02
1.7227594e-02
3.4188876e-03
-5.5724272e-03
-2.2531268e-02
-6.4762567e-02
-1.1189466e-01
-1.3562617e-01
-1.2803729e-01
-1.0692034e-01
-1.0274530e-01
-1.0830906e-01
-9.8660222e-02
-6.8337700e-02
-2.9983894e-02
4.3270515e-03
4.3796007e-02
8.0926170e-02
1.0426652e-01
1.1876658e-01
1.0692843e-01
6.8621302e-02
3.1681726e-02
1.3622656e-02
9.1274469e-03
6.1851141e-03
1.4949862e-02
3.2826463e-02
5.3060719e-02
7.6761061e-02
8.2460726e-02
6.6017132e-02
5.0137927e-02
4.8650951e-02
5.3022690e-02
5.2729597e-02
5.5000259e-02
5.4770559e-02
5.0062335e-02
3.4770404e-02
-1.2044043e-02
-6.8801742e-02
-1.0279535e-01
-1.0916301e-01
-1.0206628e-01
-9.4871830e-02
-8.2123777e-02
-6.5483423e-02
-4.6583307e-02
-3.1737598e-02
-3.5772186e-02
-5.0466956e-02
-6.5390577e-02
-7.5681786e-02
-8.0722379e-02
-8.3206980e-02
-7.3298025e-02
-4.5000449e-02
1.7795665e-03
5.3716806e-02
8.9393994e-02
1.0951653e-01
1.2368587e-01
1.3620615e-01
1.3357249e-01
1.0707537e-01
7.6092617e-02
4.8981540e-02
2.9848126e-02
1.1336356e-02
-2.1524026e-02
-5.1708184e-02
-6.3177507e-02
-5.7175912e-02
-4.4655440e-02
-3.1053883e-02
-1.1558401e-02
7.0671457e-03
2.4578696e-02
3.3962576e-02
1.9925265e-02
-6.3471282e-03
-3.2228943e-02
-5.4480558e-02
-7.3650154e-02
-8.9056987e-02
-9.3866909e-02
-8.9671491e-02
-7.9992907e-02
-7.0481267e-02
-6.3850523e-02
-5.3395736e-02
-3.6949151e-02
-1.7132681e-02
-7.5660109e-03
-1.2974202e-02
-1.9740746e-02
-2.2771092e-02
-1.8710665e-02
-5.7330247e-03
1.8022209e-02
5.4729200e-02
9.9937360e-02
1.4667793e-01
1.7276912e-01
1.6953250e-01
1.5073007e-01
1.2196913e-01
9.4619325e-02
6.9861958e-02
4.0054420e-02
8.4244585e-03
-2.2951594e-02
-4.8501686e-02
-6.7642634e-02
-7.9754608e-02
-7.7952397e-02
-6.1771958e-02
-3.4899566e-02
-1.0101952e-02
4.1509830e-03
1.2442852e-02
1.6529206e-02
1.8126368e-02
1.5203877e-02
8.0781561e-03
4.2059817e-05
-9.4077218e-03
-1.4452474e-02
-1.4835324e-02
-1.1286896e-02
-3.2254504e-03
2.1871969e-03
3.1232003e-03
7.8747752e-04
-9.4564041e-04
-3.0604445e-03
-9.2669053e-03
-1.1614705e-02
-1.1361971e-02
-1.0934874e-02
-4.7953064e-03
4.3060881e-03
1.0681942e-02
9.7642043e-03
6.5538974e-03
5.7488716e-03
5.1268583e-03
8.7224448e-03
1.2137519e-02
1.0187825e-02
5.5983925e-03
-3.0417023e-03
-1.3960518e-02
-2.4904969e-02
-3.2542991e-02
-3.4523744e-02
-3.1836944e-02
-2.3423494e-02
-1.5788606e-02
-1.3486540e-02
-1.4298794e-02
-1.7688220e-02
-2.3174039e-02
-3.0443339e-02
-3.5078065e-02
-3.7312139e-02
-3.6765371e-02
-2.7924044e-02
-1.5228318e-02
2.7023682e-04
1.8856220e-02
3.5094563e-02
4.5013264e-02
4.5511483e-02
4.2876818e-02
4.1877973e-02
4.1205706e-02
3.9984440e-02
3.3286804e-02
2.5370873e-02
2.2048823e-02
1.8076754e-02
9.5935513e-03
-6.2915206e-04
-4.9910989e-03
-6.1463566e-03
-7.0665616e-03
-3.4654948e-03
-8.0187174e-04
1.5985282e-03
6.2660068e-03
6.3726457e-03
-1.8215860e-03
-1.5972575e-02
-2.7972339e-02
-3.5266189e-02
-3.6180394e-02
-3.0151919e-02
-2.5443770e-02
-1.7972438e-02
-2.9382403e-03
1.0913142e-02
1.3765103e-02
2.7024373e-03
-1.3091486e-02
-2.7611338e-02
-3.5621010e-02
-3.4007619e-02
-3.2548908e-02
-3.0966034e-02
-2.5058356e-02
-2.0784243e-02
-2.5705007e-02
-3.8583597e-02
-4.8726042e-02
-5.7792353e-02
-6.3757819e-02
-5.7495497e-02
-4.5735913e-02
-2.9615725e-02
-4.3886614e-03
2.4863398e-02
4.7885584e-02
6.6449006e-02
9.1405178e-02
1.1098829e-01
1.2064663e-01
1.3210962e-01
1.4119681e-01
1.5061576e-01
1.6021114e-01
1.5665815e-01
1.2657560e-01
7.0734839e-02
1.4825299e-02
-3.8030787e-02
-9.3912596e-02
-1.4031682e-01
-1.7575571e-01
-1.9741540e-01
-2.0226269e-01
-2.0052806e-01
-2.0267771e-01
-2.0466961e-01
-1.9779365e-01
-1.9023287e-01
-1.8258432e-01
-1.6468847e-01
-1.3670230e-01
-9.7854483e-02
-4.4679176e-02
2.1642003e-02
9.2452800e-02
1.6009326e-01
2.2244287e-01
2.7353739e-01
3.0805679e-01
3.1474416e-01
2.9115037e-01
2.6401042e-01
2.3958237e-01
1.9964430e-01
1.3609566e-01
5.7591483e-02
-1.1366833e-02
-6.1318754e-02
-8.8879579e-02
-9.4499307e-02
-9.3514584e-02
-8.7457117e-02
-7.3393405e-02
-5.6200969e-02
-3.9278087e-02
-1.5112556e-02
2.3413645e-02
5.7307142e-02
7.2932913e-02
6.7826604e-02
3.8258971e-02
3.3435581e-03
-2.1132806e-02
-3.6463815e-02
-4.5833195e-02
-5.1118343e-02
-5.1144218e-02
-4.7830458e-02
-4.1387142e-02
-3.4421781e-02
-3.0542019e-02
-2.5461634e-02
-1.6357322e-02
-4.6254319e-03
4.7156866e-03
8.2779142e-03
7.5204580e-03
3.3620139e-03
-1.1342196e-03
-5.4623922e-03
-1.0282921e-02
-1.0022743e-02
-2.0443065e-03
9.5119605e-03
1.6264202e-02
1.3513298e-02
5.5014730e-03
-2.9566454e-03
-8.7251537e-03
-1.5719769e-02
-2.7073475e-02
-3.4938555e-02
-3.5985773e-02
-3.3431524e-02
-3.3630016e-02
-3.4357156e-02
-2.6307453e-02
-1.4091012e-02
-4.3541006e-03
-2.3752215e-03
-7.4639536e-03
-9.1347175e-03
-5.3981833e-03
9.5739351e-04
6.5714820e-03
1.4128640e-02
3.0236426e-02
5.1158921e-02
7.3913712e-02
8.2010733e-02
6.1001706e-02
3.3133269e-02
1.4614267e-02
-6.2392872e-04
-1.8159880e-02
-3.4557215e-02
-4.3328213e-02
-4.4559947e-02
-4.1380544e-02
-4.1823860e-02
-4.7150061e-02
-4.9340412e-02
-4.6025613e-02
-3.9156837e-02
-3.3090435e-02
-2.7241639e-02
-1.8605643e-02
-1.0407843e-02
-3.8700728e-03
-3.1618195e-04
1.2021060e-03
5.6374234e-03
1.2696880e-02
1.7989163e-02
1.5609382e-02
6.8679536e-03
7.9115949e-04
1.3999355e-03
7.0341364e-03
8.5363893e-03
4.9036517e-04
-8.6914999e-03
-1.2256349e-02
-1.0354486e-02
-6.4607366e-03
5.0427338e-04
1.2364714e-02
2.8561429e-02
4.9452901e-02
6.0283359e-02
5.2564762e-02
4.1951385e-02
3.7946775e-02
3.7955205e-02
3.8079890e-02
3.7592673e-02
3.4603275e-02
3.4995203e-02
4.9987882e-02
5.9160616e-02
4.4311734e-02
2.4733814e-02
1.2927977e-02
4.2673278e-03
-2.6609974e-03
-4.0475301e-03
-2.5332217e-03
-3.5563391e-03
-3.8252286e-03
-4.9454732e-03
-8.2469443e-03
-8.9978818e-03
-6.4190557e-03
-2.0221380e-03
2.7928123e-03
1.2896218e-02
2.2823733e-02
2.0105799e-02
9.4705938e-03
-7.0680275e-03
-2.8040286e-02
-4.6479539e-02
-6.2069045e-02
-7.7521998e-02
-9.0132779e-02
-8.7156112e-02
-6.9473546e-02
-5.2253639e-02
-4.0363235e-02
-3.2137832e-02
-2.4120972e-02
-1.6541158e-02
-1.3591509e-02
-1.5245838e-02
-1.9107815e-02
-2.0765300e-02
-2.0096740e-02
-1.4866897e-02
-2.0437999e-03
6.4248895e-03
5.9400378e-03
3.5835130e-03
2.2525856e-03
3.8750263e-03
8.0902239e-03
1.5057298e-02
2.2782282e-02
2.9126243e-02
3.2170535e-02
2.6218828e-02
1.5249737e-02
6.4245606e-03
1.6052830e-03
2.6848323e-03
1.0817743e-02
2.5841870e-02
3.4348898e-02
2.8019609e-02
1.3005949e-02
-9.0426185e-03
-2.8138722e-02
-3.8626453e-02
-4.4164521e-02
-4.3615351e-02
-3.4625788e-02
-1.6130805e-02
4.3644297e-03
2.3764791e-02
3.9863071e-02
4.5226759e-02
4.6686837e-02
5.0896628e-02
5.6282555e-02
6.1182106e-02
6.1623853e-02
5.5373826e-02
3.9824752e-02
1.8014678e-02
-1.8756035e-03
-1.9407185e-02
-3.3940180e-02
-4.5367541e-02
-5.6784402e-02
-6.7472598e-02
-7.4566462e-02
-7.4393351e-02
-6.9374524e-02
-6.2680754e-02
-6.0045957e-02
-6.3554385e-02
-5.6441693e-02
-3.2904009e-02
-2.4640110e-03
3.0457364e-02
6.5849259e-02
1.0571911e-01
1.4024771e-01
1.6249143e-01
1.7042417e-01
1.5735712e-01
1.2958116e-01
8.9179950e-02
4.0997713e-02
-1.3701026e-03
-3.1318420e-02
-4.7209161e-02
-5.9310037e-02
-7.2206611e-02
-8.5293338e-02
-9.9401467e-02
-1.0415708e-01
-1.0050410e-01
-9.6804321e-02
-9.2757513e-02
-8.4616294e-02
-6.7705922e-02
-4.6805672e-02
-2.5610028e-02
-1.4212950e-02
-2.0150393e-02
-2.3959429e-02
-1.9638836e-02
-1.5563996e-02
-8.7923750e-03
6.5931048e-03
3.0924886e-02
5.4231215e-02
7.0692923e-02
6.9939948e-02
4.7013282e-02
2.6152929e-02
1.8520277e-02
1.6432637e-02
1.7490032e-02
2.1512353e-02
2.7363858e-02
2.7151277e-02
2.5073271e-02
2.3748148e-02
1.7762015e-02
1.2110585e-02
-4.6124923e-04
-1.9614841e-02
-3.1518748e-02
-2.9617016e-02
-1.1325464e-02
1.6571099e-02
4.8037378e-02
7.0390980e-02
7.4965175e-02
7.0837721e-02
5.4750864e-02
2.5690075e-02
-4.8881748e-03
-2.7449681e-02
-3.6554864e-02
-3.7930949e-02
-3.6235086e-02
-3.8406143e-02
-4.6766192e-02
-5.2212697e-02
-5.9744518e-02
-7.0465262e-02
-7.4177434e-02
-6.6951368e-02
-5.0627332e-02
-3.3278578e-02
-1.8676544e-02
-1.1873370e-02
-1.1445017e-02
-7.8327307e-03
-5.7734260e-03
-1.5746507e-03
1.7507957e-02
5.6376918e-02
1.0342313e-01
1.2932146e-01
1.3111059e-01
1.2855855e-01
1.3446015e-01
1.4335974e-01
1.2786084e-01
8.5321997e-02
3.8041464e-02
-3.9695410e-05
-2.6249471e-02
-4.7158204e-02
-6.0939756e-02
-7.1623588e-02
-8.5021109e-02
-9.1290204e-02
-9.3871428e-02
-1.0054559e-01
-1.0772220e-01
-1.0881172e-01
-1.0138058e-01
-9.1343666e-02
-7.9005588e-02
-6.4669008e-02
-4.5551038e-02
-2.1736220e-02
-1.1358594e-02
-1.5843925e-02
-1.9641662e-02
-1.4489838e-02
-1.9317937e-03
1.0408236e-02
2.4415485e-02
3.9833973e-02
5.5411371e-02
7.0327062e-02
6.8310637e-02
4.9909808e-02
3.4672693e-02
3.5607030e-02
5.2262219e-02
7.3918518e-02
9.8967852e-02
1.2199655e-01
1.4266609e-01
1.5885225e-01
1.4507736e-01
1.0365888e-01
5.5375759e-02
6.8816043e-03
-3.6562567e-02
-7.6911799e-02
-1.1442143e-01
-1.4645939e-01
-1.6945989e-01
-1.8082284e-01
-1.8716822e-01
-1.8584423e-01
-1.7050090e-01
-1.4230524e-01
-1.0801176e-01
-7.5141630e-02
-4.3002064e-02
-1.7826811e-02
5.3908403e-04
1.9406094e-02
3.0244443e-02
3.5942908e-02
5.0687627e-02
7.7676738e-02
1.1105195e-01
1.4691703e-01
1.8930403e-01
2.1887808e-01
2.1587901e-01
1.9251704e-01
1.5415959e-01
1.0476016e-01
5.7746632e-02
2.1140400e-02
-7.1116847e-03
-3.3078381e-02
-5.3236906e-02
-6.9797385e-02
-8.5174082e-02
-9.3783026e-02
-9.6470309e-02
-9.1051954e-02
-7.4270473e-02
-4.7488688e-02
-2.5306899e-02
-2.0420953e-02
-1.8461329e-02
-1.7020207e-02
-1.8245511e-02
-1.6714011e-02
-2.2885015e-02
-3.4476683e-02
-4.2147631e-02
-4.4731938e-02
-4.1979841e-02
-3.5923795e-02
-2.5010934e-02
-1.3036301e-02
1.7978358e-03
1.7854451e-02
1.8172696e-02
6.5963215e-03
-4.9030968e-03
-1.3352913e-02
-1.9831382e-02
-2.5844372e-02
-2.5812875e-02
-2.3862271e-02
-2.1172740e-02
-1.3593527e-02
-7.3512785e-03
-5.6719488e-04
1.3320305e-02
3.4526515e-02
5.7392482e-02
7.8581461e-02
1.0223894e-01
1.1377750e-01
1.0191253e-01
7.9566873e-02
4.9416725e-02
1.3253029e-02
-1.9305898e-02
-4.3246237e-02
-6.3971503e-02
-8.4807341e-02
-9.9444008e-02
-1.1376674e-01
-1.2409353e-01
-1.1647570e-01
-9.6928215e-02
-7.3605368e-02
-4.6132393e-02
-1.3706178e-02
1.7782738e-02
4.7643046e-02
8.4363130e-02
1.1861672e-01
1.4385146e-01
1.5815301e-01
1.4915231e-01
1.2602490e-01
1.0560291e-01
9.1295101e-02
7.2102815e-02
3.7783374e-02
1.7044387e-03
-2.3951384e-02
-3.9693223e-02
-5.1405401e-02
-6.3444832e-02
-7.2060165e-02
-7.5870446e-02
-7.6328091e-02
-7.6839895e-02
-7.7662951e-02
-7.4328676e-02
-7.0382484e-02
-6.7899764e-02
-6.1456000e-02
-4.6436121e-02
-2.0924216e-02
1.2338094e-02
5.0431626e-02
7.9644184e-02
8.8491989e-02
8.9929128e-02
8.8684343e-02
8.5090585e-02
7.2195183e-02
3.1850005e-02
-2.0795675e-02
-6.0473698e-02
-8.0579461e-02
-8.8108887e-02
-8.9475234e-02
-7.9148145e-02
-5.9835718e-02
-3.5323081e-02
-1.5686205e-02
-1.6427411e-02
-2.7308393e-02
-3.3488230e-02
-3.1918024e-02
-2.6106418e-02
-1.6105273e-02
5.4098936e-03
3.5856901e-02
7.0703370e-02
9.7787138e-02
9.8561912e-02
8.0171269e-02
6.2328982e-02
5.6892366e-02
5.4245285e-02
4.0756906e-02
2.8260408e-02
2.5637736e-02
3.4025668e-02
4.2658739e-02
3.5279279e-02
1.8474211e-02
1.6627617e-03
-8.3754768e-03
-9.9412775e-03
-6.6932911e-03
1.1096148e-03
7.7339675e-03
1.6018453e-02
1.8918540e-02
-3.4405349e-04
-2.9799012e-02
-5.2401283e-02
-6.3334627e-02
-6.5826055e-02
-6.2682945e-02
-5.2494068e-02
-4.1223763e-02
-3.0518178e-02
-2.2546353e-02
-2.2413236e-02
-2.6164154e-02
-3.0835428e-02
-3.6618089e-02
-4.5804414e-02
-5.3869073e-02
-5.4266233e-02
-5.3351874e-02
-5.5946551e-02
-6.1407527e-02
-6.4050405e-02
-5.8976851e-02
-4.9263059e-02
-3.6771122e-02
-2.6846286e-02
-1.8620850e-02
-1.5264429e-03
2.5427550e-02
5.8710145e-02
9.1803686e-02
1.1724486e-01
1.3114190e-01
1.2436705e-01
9.9128046e-02
7.2315312e-02
5.4396763e-02
4.2076890e-02
1.8533923e-02
-1.9481463e-02
-5.7415541e-02
-8.5969180e-02
-1.0451983e-01
-1.1628079e-01
-1.1949446e-01
-1.1554557e-01
-1.0365161e-01
-7.8872152e-02
-4.5554284e-02
-5.5893831e-03
3.9391509e-02
8.8678111e-02
1.4558611e-01
2.0683005e-01
2.6868690e-01
3.1817775e-01
3.3925518e-01
3.2908744e-01
2.8625910e-01
2.2334703e-01
1.5711188e-01
8.8081528e-02
2.0160747e-02
-3.7066785e-02
-7.9174422e-02
-1.1369809e-01
-1.4636558e-01
-1.7313044e-01
-1.9294268e-01
-2.0681829e-01
-2.2229664e-01
-2.4144989e-01
-2.5273087e-01
-2.4859468e-01
-2.3087248e-01
-2.0683932e-01
-1.7780419e-01
-1.4186486e-01
-9.9741832e-02
-5.1111451e-02
-1.9734570e-03
4.3306070e-02
8.5989248e-02
1.2308284e-01
1.4855306e-01
1.5796950e-01
1.5493531e-01
1.4038505e-01
1.1131037e-01
7.5429857e-02
4.1903521e-02
1.4458280e-02
-4.8831877e-03
-1.6664472e-02
-2.2150210e-02
-2.2519804e-02
-1.6043942e-02
-3.3962012e-03
1.0697088e-02
2.5657249e-02
3.6975551e-02
4.2232194e-02
4.6248982e-02
4.9570891e-02
5.2160017e-02
5.4136880e-02
5.6255947e-02
5.3913736e-02
4.0673361e-02
2.0019392e-02
-5.6652971e-03
-2.9098382e-02
-4.1429086e-02
-4.3976600e-02
-4.0410016e-02
-3.9008523e-02
-4.1703909e-02
-4.3829080e-02
-4.5298432e-02
-4.3153058e-02
-3.6720598e-02
-2.6080900e-02
-1.1597337e-02
3.1108548e-03
1.2812978e-02
1.1121720e-02
5.5903701e-03
3.4773808e-03
1.8239531e-03
3.1020247e-03
6.6734392e-03
1.0239969e-02
1.2760708e-02
1.3381245e-02
1.4464780e-02
1.2029997e-02
3.5482348e-03
-5.9792275e-03
-1.2303140e-02
-1.5847439e-02
-2.2132209e-02
-2.9897790e-02
-3.4934909e-02
-3.7466559e-02
-3.6195212e-02
-3.3630736e-02
-3.0220757e-02
-2.3472678e-02
-1.3819438e-02
-4.0784633e-03
3.8836887e-03
1.7095927e-02
3.5232874e-02
4.8180176e-02
5.3991630e-02
5.4752735e-02
5.1809492e-02
4.3280691e-02
3.0461063e-02
2.0555995e-02
1.0839404e-02
-3.2225832e-04
-8.0994817e-03
-1.2449024e-02
-1.6095043e-02
-2.4664884e-02
-3.6666050e-02
-4.7533520e-02
-5.5502836e-02
-5.5960712e-02
-5.3019822e-02
-5.1098066e-02
-4.8368761e-02
-4.4091913e-02
-3.6963842e-02
-2.9078797e-02
-2.0428042e-02
-1.0073980e-02
1.1257116e-03
1.4107992e-02
2.3524802e-02
2.5871751e-02
2.4631092e-02
2.0645718e-02
1.6023418e-02
1.5722224e-02
2.3912034e-02
3.7785767e-02
4.9221578e-02
5.5913600e-02
6.0865909e-02
6.9731702e-02
8.0975574e-02
8.4942743e-02
7.4645004e-02
4.8227069e-02
1.6866129e-02
-9.0831499e-03
-2.7368764e-02
-3.5941708e-02
-4.2832611e-02
-5.0682084e-02
-5.2931933e-02
-5.0206732e-02
-4.6523291e-02
-4.3579294e-02
-3.6797035e-02
-2.6291717e-02
-1.6311025e-02
-6.6108922e-03
-8.6488523e-04
3.5382036e-04
-1.9434436e-03
-9.4159693e-03
-2.0325300e-02
-3.2798096e-02
-4.2048744e-02
-4.4960453e-02
-4.1591871e-02
-3.2884315e-02
-2.3711147e-02
-1.2169582e-02
3.6305791e-03
1.9425471e-02
3.3258792e-02
4.3575575e-02
5.3564664e-02
6.4505070e-02
7.6292553e-02
9.2048200e-02
1.0590836e-01
1.0965160e-01
9.5769017e-02
5.9399132e-02
8.0494903e-03
-4.0516282e-02
-6.7963502e-02
-7.4047175e-02
-7.0708844e-02
-6.7659415e-02
-6.9440084e-02
-6.8156479e-02
-6.0967171e-02
-5.5028627e-02
-5.2599830e-02
-5.3328454e-02
-5.4696275e-02
-5.6605884e-02
-5.6018759e-02
-4.7837038e-02
-3.4685731e-02
-1.3440305e-02
1.7781245e-02
5.1816662e-02
8.3436047e-02
1.0985506e-01
1.3074761e-01
1.3519008e-01
1.1989263e-01
1.0122513e-01
8.0593400e-02
5.9555889e-02
4.5491003e-02
3.4779340e-02
2.2802142e-02
8.1376602e-03
-4.5028797e-03
-1.3453579e-02
-2.0299839e-02
-2.3723349e-02
-2.7447618e-02
-3.1008317e-02
-3.0486403e-02
-2.8793549e-02
-2.8864488e-02
-2.9771619e-02
-2.7150130e-02
-2.2501726e-02
-2.0293374e-02
-2.2089898e-02
-2.6174757e-02
-2.1939640e-02
-1.2279656e-02
-1.5236491e-02
-3.4567067e-02
-5.7297384e-02
-6.8603892e-02
-6.9457298e-02
-7.1453690e-02
-7.7605843e-02
-8.4973487e-02
-8.8509904e-02
-8.5966198e-02
-8.0957096e-02
-7.6944580e-02
-7.4362097e-02
-6.7543807e-02
-5.5635339e-02
-4.1559932e-02
-2.4197143e-02
-4.7031172e-03
2.1095297e-02
5.6546444e-02
9.5932157e-02
1.3531776e-01
1.7357888e-01
2.0665972e-01
2.1022303e-01
1.7704876e-01
1.3598129e-01
9.4666562e-02
5.5837858e-02
2.8248893e-02
8.5743792e-03
-9.7561559e-03
-2.8948188e-02
-4.1189568e-02
-4.5101790e-02
-3.8539710e-02
-1.6811798e-02
1.3061332e-02
4.7209832e-02
8.0021105e-02
1.0010641e-01
9.6823053e-02
6.7476853e-02
2.9682095e-02
-2.8893600e-03
-2.6055668e-02
-3.7948540e-02
-4.4957688e-02
-4.6694572e-02
-4.3268682e-02
-4.1933551e-02
-4.8391197e-02
-6.3454597e-02
-7.6329852e-02
-7.6838867e-02
-6.6504897e-02
-5.4293701e-02
-4.4787516e-02
-3.0880474e-02
-1.0423145e-02
7.1393674e-03
1.1969078e-02
4.6565897e-03
-5.4595522e-03
-1.5776861e-02
-2.2592789e-02
-2.2298935e-02
-2.1408438e-02
-1.9338101e-02
-1.3591020e-02
-9.0181513e-03
-8.6796363e-03
-1.2211989e-02
-1.6905152e-02
-2.3591613e-02
-2.8468206e-02
-2.5406858e-02
-1.9475998e-02
-1.0720748e-02
3.5574534e-03
1.9359087e-02
3.2857422e-02
4.1753579e-02
4.6273506e-02
4.5476350e-02
4.6438060e-02
5.5949303e-02
6.5921948e-02
7.2751824e-02
7.5942063e-02
7.1892223e-02
5.8511400e-02
3.8877427e-02
2.3323468e-02
1.2431194e-02
4.8744987e-03
2.0636078e-03
-1.7001634e-03
-3.8776470e-03
-9.5666725e-04
4.8167101e-04
-7.5922119e-03
-2.3641260e-02
-3.8439991e-02
-5.3835974e-02
-6.9731169e-02
-8.0369245e-02
-8.9197471e-02
-9.4082531e-02
-9.1863234e-02
-8.9346991e-02
-9.2424134e-02
-9.5083840e-02
-8.7774968e-02
-7.6979116e-02
-6.8710600e-02
-6.1939473e-02
-5.8044331e-02
-5.0149519e-02
-3.5427368e-02
-2.1504492e-02
-1.2042473e-02
-2.3911415e-03
1.0657350e-02
1.8648418e-02
2.6905269e-02
5.4551630e-02
1.0082468e-01
1.5297852e-01
1.9404608e-01
2.0724753e-01
1.8822423e-01
1.4732848e-01
1.0247249e-01
5.8635346e-02
2.0494764e-02
-3.7140551e-03
-1.9076519e-02
-2.8100425e-02
-3.2634155e-02
-3.8588786e-02
-4.9364308e-02
-6.2245919e-02
-6.7599381e-02
-6.7165652e-02
-5.9268754e-02
-3.5797459e-02
2.4481630e-04
4.7009707e-02
9.4897762e-02
1.2145109e-01
1.0200136e-01
4.1261805e-02
-1.5970602e-02
-4.1923235e-02
-3.8893203e-02
-1.9080679e-02
-1.0279715e-03
7.0583355e-03
6.7624320e-03
-1.7527779e-03
-2.1488070e-02
-4.8431102e-02
-6.9306164e-02
-8.1862631e-02
-8.6656977e-02
-8.2320409e-02
-7.7058616e-02
-7.2964795e-02
-6.6308284e-02
-5.9621569e-02
-6.2451171e-02
-7.3555226e-02
-7.6170495e-02
-6.8908146e-02
-5.5359303e-02
-3.6957496e-02
-2.2021831e-02
-8.2900361e-03
8.6479836e-03
2.7465084e-02
4.2299267e-02
5.1376683e-02
6.2265878e-02
7.2398642e-02
8.1269936e-02
9.1445384e-02
9.8773307e-02
1.0899156e-01
1.2438491e-01
1.3868376e-01
1.3772110e-01
1.1392949e-01
8.5997890e-02
6.2393864e-02
4.1010345e-02
2.4124475e-02
1.2970135e-02
1.4134112e-02
2.7607528e-02
4.5601373e-02
4.6945967e-02
1.4976515e-02
-2.7925560e-02
-5.5797468e-02
-6.2830330e-02
-5.4379550e-02
-4.2502080e-02
-3.2683127e-02
-2.7868773e-02
-3.2939558e-02
-5.1065930e-02
-7.4666868e-02
-9.0295128e-02
-9.5610701e-02
-8.8738131e-02
-7.1232520e-02
-5.1989412e-02
-2.9083962e-02
-3.2466468e-04
2.6477591e-02
4.1668275e-02
4.5199352e-02
4.4030002e-02
3.3660599e-02
1.9367572e-02
1.4863829e-02
1.5080141e-02
1.9191937e-02
2.8181919e-02
3.2093448e-02
2.5454900e-02
1.6876499e-02
1.7028154e-02
2.0047107e-02
2.2250584e-02
2.5925085e-02
2.8665709e-02
3.1654052e-02
3.1426590e-02
2.0392998e-02
-2.4822512e-03
-2.6680769e-02
-4.2359458e-02
-5.6332983e-02
-6.6062774e-02
-6.0493829e-02
-4.1636222e-02
-1.3366585e-02
2.0312069e-02
5.3365206e-02
7.0341004e-02
5.9373330e-02
3.3427595e-02
6.3092594e-03
-1.6435556e-02
-3.6568057e-02
-6.0761468e-02
-8.5741292e-02
-1.0761495e-01
-1.2841770e-01
-1.4945217e-01
-1.6458299e-01
-1.6825464e-01
-1.6360959e-01
-1.5107916e-01
-1.3382856e-01
-1.1840597e-01
-1.0168006e-01
-8.0260282e-02
-5.8777118e-02
-4.8909188e-02
-5.0238097e-02
-5.1790361e-02
-5.9817029e-02
-7.2921021e-02
-7.5252486e-02
-6.2832149e-02
-3.8643441e-02
-9.8648158e-03
1.5306534e-02
3.0888141e-02
4.4246743e-02
7.1572054e-02
1.1473016e-01
1.7762506e-01
2.5637502e-01
3.3437295e-01
4.0736859e-01
4.6300963e-01
4.7609734e-01
4.3246003e-01
3.4748191e-01
2.4758665e-01
1.4691695e-01
6.9910371e-02
3.0179191e-02
7.1018279e-03
-2.9826313e-02
-9.8987387e-02
-1.8587362e-01
-2.5374582e-01
-2.7903154e-01
-2.6351071e-01
-2.2626475e-01
-1.9073402e-01
-1.6752947e-01
-1.4718864e-01
-1.1971910e-01
-8.8889340e-02
-5.5733453e-02
-1.9941010e-02
1.9746323e-02
5.9503454e-02
8.6618464e-02
1.1127570e-01
1.3503413e-01
1.4411658e-01
1.4554299e-01
1.3932751e-01
1.1942383e-01
8.3275052e-02
3.5154893e-02
-5.3068956e-03
-2.9357304e-02
-3.6847236e-02
-4.0915876e-02
-5.6642037e-02
-7.2444783e-02
-8.0386441e-02
-8.5640090e-02
-9.4976304e-02
-1.0784716e-01
-1.1895703e-01
-1.2887727e-01
-1.3172609e-01
-1.2071958e-01
-9.6556634e-02
-6.1631136e-02
-2.0236188e-02
2.2766552e-02
5.9780997e-02
9.2411273e-02
1.2459956e-01
1.4395624e-01
1.4803130e-01
1.4251546e-01
1.3112756e-01
1.2417284e-01
1.2147012e-01
1.1208640e-01
8.7222735e-02
5.3850269e-02
2.7699775e-02
8.0311332e-03
-1.0885485e-02
-3.0099771e-02
-4.7106472e-02
-5.6887836e-02
-6.2143366e-02
-7.1829802e-02
-9.1841543e-02
-1.1241828e-01
-1.2316671e-01
-1.2686499e-01
-1.2418006e-01
-1.2039134e-01
-1.1994248e-01
-1.1400943e-01
-9.8617591e-02
-7.9966394e-02
-6.4526953e-02
-4.8738824e-02
-2.6118557e-02
-1.8229080e-04
2.4619997e-02
4.2928546e-02
5.5637624e-02
7.1752376e-02
9.1568430e-02
1.1071398e-01
1.1887538e-01
1.1357662e-01
1.0308275e-01
9.1977875e-02
9.0567810e-02
9.1302777e-02
8.2488332e-02
7.5773368e-02
7.0512166e-02
5.2957527e-02
1.9005720e-02
-1.8562252e-02
-4.7202580e-02
-6.6278901e-02
-7.0376037e-02
-6.4903343e-02
-6.0130531e-02
-5.3119098e-02
-4.5024416e-02
-4.3210507e-02
-5.0723891e-02
-5.5758088e-02
-4.7046148e-02
-2.9811638e-02
-1.1626874e-02
5.2871743e-04
4.8020843e-03
9.1078775e-03
1.6956459e-02
2.3462068e-02
2.2399976e-02
1.6122943e-02
9.9146858e-03
2.1984129e-03
-7.1982651e-03
-1.9224403e-02
-3.2861876e-02
-4.3443211e-02
-5.0993235e-02
-5.7478217e-02
-6.5892898e-02
-7.2704782e-02
-7.3523150e-02
-6.9544425e-02
-5.5728097e-02
-3.9474796e-02
-3.1570377e-02
-2.1163294e-02
-2.4385360e-03
1.7620760e-02
3.4696220e-02
5.2646690e-02
7.0379255e-02
8.3519798e-02
9.8640676e-02
1.1171540e-01
1.1463438e-01
1.1139222e-01
1.0194009e-01
8.2231048e-02
5.4329158e-02
3.1490499e-02
2.0561168e-02
1.6245767e-02
1.8517028e-02
2.1166362e-02
1.9818427e-02
1.9932088e-02
1.8456409e-02
3.5009868e-03
-3.4254331e-02
-8.1883217e-02
-1.1937434e-01
-1.4160065e-01
-1.4653622e-01
-1.4352151e-01
-1.4422245e-01
-1.4235989e-01
-1.3047525e-01
-1.1107684e-01
-9.0872477e-02
-6.9651324e-02
-4.4336104e-02
-1.6843603e-02
8.2406940e-03
1.8547265e-02
1.3440255e-02
9.2974884e-03
1.3187504e-02
2.4276675e-02
4.1651067e-02
6.7820314e-02
1.0204094e-01
1.4414794e-01
2.0055220e-01
2.4148422e-01
2.3804059e-01
2.1718010e-01
1.9724327e-01
1.6876182e-01
1.2515609e-01
7.4896173e-02
2.9075320e-02
-1.1461692e-02
-4.1071183e-02
-6.2369994e-02
-8.0194339e-02
-8.9401691e-02
-8.9302095e-02
-8.5651122e-02
-8.5040305e-02
-8.4227113e-02
-8.1564986e-02
-8.0480007e-02
-7.6633966e-02
-7.2661146e-02
-6.9067326e-02
-5.6281234e-02
-3.3094829e-02
-8.7630256e-03
2.3927279e-03
2.1232756e-03
5.9016288e-03
1.5107509e-02
2.0381490e-02
1.2966648e-02
-4.2715506e-03
-2.1738720e-02
-3.6373004e-02
-4.8132790e-02
-5.7735385e-02
-6.0712345e-02
-5.5056332e-02
-4.2617868e-02
-2.2834659e-02
-2.4878678e-03
1.6500851e-02
3.7562279e-02
5.7047747e-02
7.1467058e-02
7.9843081e-02
8.7200015e-02
9.0075126e-02
8.3629167e-02
7.9132410e-02
7.0308098e-02
4.6885828e-02
1.9546125e-02
-4.0216933e-03
-2.2660455e-02
-3.7578936e-02
-4.5876685e-02
-4.6132109e-02
-3.9319999e-02
-2.4182361e-02
-1.4429061e-02
-1.5398077e-02
-1.5564861e-02
-1.4503954e-02
-1.7274273e-02
-2.6175803e-02
-3.5923008e-02
-4.0721395e-02
-3.9055078e-02
-2.8671589e-02
-2.0379307e-02
-2.0903202e-02
-2.0874247e-02
-1.5059091e-02
-6.8682842e-03
-1.9270600e-03
3.1913341e-03
8.5898093e-03
9.6211380e-03
1.0706763e-02
1.1055005e-02
9.0616281e-03
6.9465942e-03
3.4745185e-03
-1.1228538e-03
-5.2975938e-03
-3.1589139e-03
6.6243345e-03
2.1941495e-02
4.1821576e-02
5.2011265e-02
4.7523020e-02
3.8393004e-02
2.8308386e-02
1.7180673e-02
8.4290291e-03
9.4195795e-03
9.7558307e-03
-1.9827535e-03
-1.7385335e-02
-3.2829908e-02
-4.4942805e-02
-5.0357585e-02
-5.0034826e-02
-4.3715616e-02
-3.1354609e-02
-8.5262235e-03
2.0329012e-02
4.7326715e-02
6.9736396e-02
7.7021833e-02
6.8180748e-02
5.2983314e-02
3.4257288e-02
1.3383836e-02
-4.9642981e-03
-1.2817770e-02
-1.3056794e-02
-1.2930209e-02
-1.1324657e-02
-1.5310345e-02
-2.5420928e-02
-3.2679387e-02
-3.6135821e-02
-3.6739613e-02
-3.4876670e-02
-2.8655292e-02
-2.1792814e-02
-1.7268408e-02
-1.3395732e-02
-1.5636156e-02
-2.0312265e-02
-1.9864291e-02
-1.5692703e-02
-1.0446644e-02
-7.4082705e-03
-4.9273700e-03
-1.7130084e-03
8.0840287e-04
1.2751711e-03
-5.9204597e-03
-1.7412895e-02
-2.3804074e-02
-2.2240864e-02
-1.3249279e-02
4.5081561e-04
2.0616835e-02
4.3872615e-02
6.5602067e-02
8.4330072e-02
8.4496196e-02
6.4487003e-02
4.0547189e-02
1.9822205e-02
4.4619257e-03
-5.9271774e-03
-1.0718967e-02
-1.5565218e-02
-2.6632164e-02
-3.8973109e-02
-4.9423433e-02
-5.5331779e-02
-5.9707994e-02
-6.5829748e-02
-7.0515645e-02
-7.1861136e-02
-6.4175889e-02
-5.1818964e-02
-4.4240816e-02
-4.1232790e-02
-4.2032031e-02
-3.9543838e-02
-3.0484118e-02
-1.9960797e-02
-7.3295803e-03
1.0943325e-02
3.7933528e-02
6.4420245e-02
7.9495856e-02
8.2394996e-02
7.2195010e-02
5.9533122e-02
5.3894288e-02
5.1654865e-02
5.1534323e-02
5.3829730e-02
6.3191720e-02
7.0780762e-02
6.3108263e-02
4.5916045e-02
2.5351391e-02
9.8898767e-03
-3.1241674e-04
-9.8953927e-03
-1.3576614e-02
-7.3808045e-03
1.0395460e-02
2.6160077e-02
3.1835936e-02
3.5293674e-02
3.5873700e-02
3.6330251e-02
3.5030318e-02
2.4633447e-02
7.8268313e-03
-8.7512273e-03
-1.8696398e-02
-2.9120797e-02
-4.4539361e-02
-5.6314086e-02
-6.3927277e-02
-6.6106798e-02
-6.2052034e-02
-5.5134757e-02
-4.5958677e-02
-3.3865386e-02
-1.5583923e-02
-9.6296447e-05
3.6722981e-03
4.8143316e-04
-5.5717616e-03
-7.6568956e-03
-4.6112263e-03
-7.1467799e-04
2.4951688e-03
3.6134602e-03
7.8844429e-03
1.5467785e-02
2.0425130e-02
2.0836215e-02
1.6331787e-02
1.1034979e-02
3.7257469e-03
-8.2307459e-03
-2.0674249e-02
-2.9813711e-02
-3.1640270e-02
-3.0943565e-02
-3.1390454e-02
-3.2722303e-02
-3.9447445e-02
-4.5515154e-02
-4.5525974e-02
-4.0194869e-02
-2.8851532e-02
-1.3060168e-02
7.2020598e-03
2.5782614e-02
3.5429168e-02
3.1188613e-02
1.1205854e-02
-9.5019426e-03
-2.0643215e-02
-2.2606612e-02
-1.4765114e-02
1.1133650e-03
2.6662031e-02
5.5817700e-02
7.6854455e-02
8.0251018e-02
6.2813545e-02
4.1751232e-02
2.7601485e-02
1.7273809e-02
1.2809465e-02
1.5388673e-02
2.5340492e-02
3.8894801e-02
5.0975829e-02
5.3353484e-02
4.0963120e-02
2.5655634e-02
1.0233792e-02
-8.8651379e-03
-2.3796368e-02
-2.6181879e-02
-1.5997206e-02
-9.4440934e-03
-1.7010047e-02
-3.4457408e-02
-5.5723609e-02
-7.0270259e-02
-7.7035987e-02
-7.9034489e-02
-7.0772165e-02
-4.7397934e-02
-1.0439956e-02
2.4420422e-02
4.5876488e-02
4.9637312e-02
3.3842993e-02
1.4625850e-02
-3.9540349e-04
-1.5277875e-02
-2.8456607e-02
-3.5364458e-02
-3.3057027e-02
-3.0990242e-02
-3.1823488e-02
-3.3494946e-02
-4.0439607e-02
-4.4674713e-02
-4.3692863e-02
-4.1972503e-02
-3.7088709e-02
-2.7388939e-02
-1.0577561e-02
4.0413220e-03
1.0339535e-02
9.3944754e-03
1.7985937e-03
5.7838041e-03
2.5131754e-02
4.8298268e-02
7.2767400e-02
1.0159682e-01
1.4152668e-01
1.7442075e-01
1.8606722e-01
1.7764058e-01
1.4132385e-01
9.2263365e-02
4.1534637e-02
-1.1875466e-02
-5.8356169e-02
-9.0904590e-02
-1.0541802e-01
-1.0905781e-01
-1.0817991e-01
-1.0411714e-01
-9.9841449e-02
-9.1585428e-02
-8.3506202e-02
-8.1662332e-02
-8.1945013e-02
-7.8651954e-02
-6.8021407e-02
-5.4623807e-02
-4.0321364e-02
-2.8337244e-02
-2.8002724e-02
-3.2609627e-02
-3.2129656e-02
-2.5233478e-02
-1.0865682e-02
9.5805476e-03
3.2706097e-02
5.3024513e-02
6.9038431e-02
8.0562263e-02
8.1735920e-02
7.0110490e-02
5.1900058e-02
3.9660803e-02
4.2137412e-02
5.7191489e-02
7.6410444e-02
9.2653217e-02
1.0411763e-01
1.0774699e-01
1.0106411e-01
8.8051092e-02
7.1885821e-02
5.5482761e-02
4.2661671e-02
3.3939003e-02
2.6141026e-02
1.2844504e-02
-7.2139665e-03
-3.1404831e-02
-5.7864740e-02
-8.1036957e-02
-9.7092325e-02
-1.0574736e-01
-1.0901924e-01
-1.0813751e-01
-1.0452207e-01
-1.0478126e-01
-1.0790259e-01
-1.1488732e-01
-1.2737390e-01
-1.3296111e-01
-1.3136959e-01
-1.2863114e-01
-1.2080936e-01
-1.0187728e-01
-6.8590524e-02
-3.3483423e-02
-4.6449965e-03
1.7976915e-02
3.4026511e-02
5.0804501e-02
5.7814394e-02
4.9274915e-02
4.1402690e-02
5.0201314e-02
8.5649521e-02
1.3762677e-01
1.9677047e-01
2.6173941e-01
3.2484998e-01
3.6738497e-01
3.5397151e-01
2.8713189e-01
1.9985958e-01
1.0749976e-01
2.5241006e-02
-4.2821473e-02
-9.8716694e-02
-1.4514640e-01
-1.8547789e-01
-2.0874256e-01
-2.1396514e-01
-2.0812645e-01
-1.9219613e-01
-1.6738075e-01
-1.3591413e-01
-1.0433477e-01
-7.7365287e-02
-6.1731425e-02
-5.9637662e-02
-5.8322881e-02
-5.3113368e-02
-4.6026213e-02
-3.3603900e-02
-1.3766900e-02
1.0759971e-02
3.3198501e-02
5.2889671e-02
6.1671197e-02
5.2335148e-02
3.8195749e-02
2.3401445e-02
1.0753309e-02
9.7360034e-03
2.1782500e-02
4.4049454e-02
6.7964285e-02
8.7728027e-02
9.7928977e-02
9.6258254e-02
9.1879747e-02
8.2284966e-02
6.2525653e-02
4.3086444e-02
3.5575520e-02
4.2921688e-02
5.3205279e-02
5.8510286e-02
4.4736976e-02
3.0630954e-03
-4.2638686e-02
-8.4863413e-02
-1.2665508e-01
-1.5786963e-01
-1.6963941e-01
-1.6281378e-01
-1.5045462e-01
-1.3391574e-01
-1.2201215e-01
-1.2591592e-01
-1.2817675e-01
-1.2425138e-01
-1.1732546e-01
-9.9362097e-02
-6.5333515e-02
-1.7579639e-02
2.7350174e-02
6.5935735e-02
9.6942728e-02
1.1353549e-01
1.1611632e-01
9.0971584e-02
4.7391794e-02
1.6138951e-02
1.2495885e-02
4.0551086e-02
8.5379845e-02
1.3467526e-01
1.8527758e-01
2.3795445e-01
2.8715874e-01
2.9294478e-01
2.4574509e-01
1.8030770e-01
1.2065778e-01
8.4291574e-02
6.7113604e-02
5.4178767e-02
2.8510778e-02
-1.6804644e-02
-6.5640380e-02
-1.1747401e-01
-1.6717853e-01
-1.9767169e-01
-2.0164937e-01
-1.8048365e-01
-1.4804047e-01
-1.1394148e-01
-8.9873279e-02
-8.2184355e-02
-7.6880062e-02
-7.2720386e-02
-7.3952232e-02
-7.1369935e-02
-5.7215870e-02
-3.4482869e-02
-1.2795559e-02
5.5376031e-03
1.6026976e-02
1.5951959e-02
1.6743361e-02
1.8525277e-02
1.3838760e-02
5.9440730e-03
1.0980300e-03
-3.2620876e-05
-2.7609690e-03
-8.7252332e-03
-2.4573455e-02
-4.8016841e-02
-5.8711183e-02
-5.8782139e-02
-5.7233979e-02
-4.5996672e-02
-1.8857380e-02
1.6747535e-02
4.5974692e-02
7.2463708e-02
9.2790468e-02
9.7829556e-02
9.2532469e-02
6.4307925e-02
1.6592893e-02
-2.2490611e-02
-3.6740488e-02
-2.5142329e-02
3.1914774e-04
3.1501228e-02
5.7687467e-02
7.3678283e-02
8.9142379e-02
9.3556014e-02
7.7842374e-02
5.7283323e-02
4.6478626e-02
4.7870817e-02
5.2199756e-02
5.4093226e-02
4.3999122e-02
1.6376293e-02
-1.3999549e-02
-4.3620950e-02
-7.2970101e-02
-9.5772367e-02
-1.1012139e-01
-1.1693537e-01
-1.2226370e-01
-1.2840214e-01
-1.3510204e-01
-1.3522771e-01
-1.1944417e-01
-9.4641714e-02
-6.4207598e-02
-2.2919252e-02
3.1290258e-02
9.2830052e-02
1.4362514e-01
1.7721461e-01
1.9058205e-01
1.8320198e-01
1.6966701e-01
1.4650354e-01
1.1374515e-01
8.6383180e-02
6.8446996e-02
5.2756621e-02
2.7686949e-02
-1.9992441e-03
-1.9789115e-02
-1.5897788e-02
3.4611807e-04
3.2957290e-03
-1.3461905e-02
-3.8997401e-02
-6.4481022e-02
-8.5790323e-02
-1.0845218e-01
-1.2848607e-01
-1.4108647e-01
-1.4832616e-01
-1.4215741e-01
-1.2362147e-01
-1.0126640e-01
-7.8634567e-02
-5.9171905e-02
-4.4968147e-02
-3.7235892e-02
-3.2991096e-02
-3.4834759e-02
-4.1335395e-02
-4.1630190e-02
-3.8018076e-02
-3.0160046e-02
-1.2110354e-02
1.7053402e-02
5.3432155e-02
8.5686232e-02
1.1396404e-01
1.3592301e-01
1.4890348e-01
1.5825650e-01
1.4345648e-01
9.9087300e-02
5.4083791e-02
2.5786052e-02
1.3187754e-02
8.5383950e-03
1.0252912e-02
1.2722249e-02
1.4879920e-02
1.7969337e-02
3.1325849e-03
-3.0914017e-02
-6.6261776e-02
-9.1334657e-02
-1.0275129e-01
-1.1092702e-01
-1.2348254e-01
-1.3893129e-01
-1.4880263e-01
-1.4578306e-01
-1.3961770e-01
-1.3715633e-01
-1.3309982e-01
-1.2154998e-01
-1.0102251e-01
-7.9618703e-02
-6.1341198e-02
-4.6659287e-02
-3.1503223e-02
-9.9224128e-03
1.0123314e-02
3.0435059e-02
6.2602862e-02
1.1380613e-01
1.8314041e-01
2.5224579e-01
3.1111908e-01
3.4986915e-01
3.5882384e-01
3.4347134e-01
2.9113689e-01
2.0690673e-01
1.2584872e-01
6.7785742e-02
3.4764413e-02
2.0110416e-02
2.1329918e-02
2.3226325e-02
1.4937614e-02
7.0478657e-03
-1.2995195e-02
-5.1975756e-02
-9.0008350e-02
-1.1621547e-01
-1.3085816e-01
-1.3777786e-01
-1.3686360e-01
-1.3563088e-01
-1.3683025e-01
-1.2818733e-01
-1.1506040e-01
-1.0527962e-01
-9.4438343e-02
-7.8999208e-02
-5.7622057e-02
-3.4794351e-02
-1.3157785e-02
1.5852575e-03
6.6698544e-03
1.0182932e-02
1.1729617e-02
1.2008556e-02
1.7885889e-02
3.4386737e-02
6.1677837e-02
9.0741914e-02
1.1451350e-01
1.2039526e-01
1.0800558e-01
9.2112243e-02
6.3037464e-02
1.8410731e-02
-2.2783139e-02
-5.0205700e-02
-6.8591197e-02
-8.8493690e-02
-1.0569173e-01
-1.1805933e-01
-1.2781726e-01
-1.3464374e-01
-1.4659018e-01
-1.5579199e-01
-1.4686556e-01
-1.1699524e-01
-7.4311323e-02
-3.3883830e-02
3.0258262e-03
3.6276667e-02
6.8493418e-02
9.8145524e-02
9.7729699e-02
6.8580833e-02
4.4201933e-02
4.5328760e-02
7.1558775e-02
1.0529262e-01
1.3832225e-01
1.6836835e-01
1.9703213e-01
2.1687495e-01
1.9228282e-01
1.2369539e-01
4.7945132e-02
-1.5654290e-02
-6.3513033e-02
-1.0116668e-01
-1.3057145e-01
-1.5202429e-01
-1.6240225e-01
-1.5334076e-01
-1.3383662e-01
-1.1516340e-01
-9.4650466e-02
-6.7484627e-02
-3.8149928e-02
-1.7117738e-02
2.5707830e-03
2.2987113e-02
3.9188203e-02
5.5541595e-02
5.6881950e-02
3.6461956e-02
1.2515501e-02
-1.5701515e-03
-2.1248599e-03
5.0508959e-03
1.6227920e-02
2.7431112e-02
3.8536021e-02
5.2204311e-02
5.3094743e-02
3.7806669e-02
2.2549612e-02
1.6549733e-02
2.0025662e-02
2.5823964e-02
3.0058579e-02
2.2521997e-02
-1.7096875e-03
-2.3122082e-02
-3.3651553e-02
-3.5997760e-02
-3.0233488e-02
-2.0450832e-02
-9.5545392e-03
-1.6671477e-03
3.5346783e-03
5.7211385e-03
8.3582497e-03
1.6642831e-02
1.8115767e-02
9.1598034e-03
-4.5395052e-03
-2.1745166e-02
-3.7114152e-02
-4.8205846e-02
-5.1734016e-02
-4.9169361e-02
-4.1884887e-02
-2.8674792e-02
-2.3631987e-02
-3.0825532e-02
-3.5165126e-02
-2.4383276e-02
1.4437146e-03
3.1471894e-02
6.3879209e-02
9.2071376e-02
1.0909982e-01
1.1167876e-01
8.3158324e-02
3.4265352e-02
-6.2658638e-03
-2.4797517e-02
-2.4308087e-02
-2.1563347e-02
-1.9258130e-02
-1.8676986e-02
-2.2194153e-02
-2.3490223e-02
-3.2091243e-02
-4.9123530e-02
-6.0946888e-02
-6.0974726e-02
-4.9001807e-02
-3.2999966e-02
-1.6482967e-02
-7.0968135e-03
-8.0189953e-03
-9.4557186e-03
-1.9239007e-02
-3.9046664e-02
-5.5136705e-02
-6.2491384e-02
-6.3448464e-02
-6.5108270e-02
-6.7430761e-02
-6.7733442e-02
-6.1506957e-02
-4.4904676e-02
-2.5467795e-02
-4.5093968e-04
4.3338678e-02
1.1270982e-01
1.8794802e-01
2.2440801e-01
2.1761214e-01
2.0323600e-01
2.0300205e-01
2.0609412e-01
1.7995530e-01
1.2387498e-01
6.5914926e-02
2.0818708e-02
-1.4237344e-02
-4.7720324e-02
-7.2805489e-02
-8.5727828e-02
-8.9020669e-02
-9.3246943e-02
-1.2203161e-01
-1.6348008e-01
-1.9223347e-01
-2.0269404e-01
-1.9624932e-01
-1.8631833e-01
-1.7647999e-01
-1.7255803e-01
-1.8204886e-01
-1.8561064e-01
-1.7791369e-01
-1.6333055e-01
-1.3461795e-01
-8.5637398e-02
-1.4547770e-02
7.0413639e-02
1.6222847e-01
2.3029233e-01
2.5097355e-01
2.4620007e-01
2.1467702e-01
1.5792261e-01
1.0591344e-01
7.1689695e-02
6.5648550e-02
9.5498373e-02
1.6151171e-01
2.4702638e-01
3.3255176e-01
3.9986954e-01
4.0662101e-01
3.5230540e-01
2.6609396e-01
1.5406840e-01
2.9106734e-02
-9.1485435e-02
-1.9053476e-01
-2.6073208e-01
-3.0406387e-01
-3.2008181e-01
-3.1666675e-01
-2.9979628e-01
-2.6993176e-01
-2.2932378e-01
-1.8208315e-01
-1.3721005e-01
-9.8804787e-02
-7.0936925e-02
-5.6076534e-02
-4.5986130e-02
-4.0491220e-02
-3.9640341e-02
-3.3246871e-02
-1.2909972e-02
1.9612637e-02
5.1126089e-02
7.4105452e-02
8.0345360e-02
6.5073545e-02
4.5722896e-02
3.2956526e-02
2.4688540e-02
2.1325775e-02
2.3575936e-02
3.0475774e-02
3.8419844e-02
4.6681761e-02
5.2245855e-02
5.1005009e-02
4.7235500e-02
4.5892719e-02
5.0661291e-02
6.4866377e-02
8.8074242e-02
1.1377613e-01
1.3054634e-01
1.3698809e-01
1.3423949e-01
1.2625997e-01
1.1398433e-01
7.7280745e-02
1.7486201e-02
-4.1670525e-02
-8.5370428e-02
-1.0746290e-01
-1.1970079e-01
-1.3173799e-01
-1.3716030e-01
-1.2830066e-01
-1.0312540e-01
-7.3999979e-02
-5.1820941e-02
-3.6264657e-02
-2.4056693e-02
-1.0263353e-02
-1.8828680e-03
-2.3298556e-03
-1.1291606e-02
-3.0967319e-02
-4.6676926e-02
-5.4145256e-02
-6.1360704e-02
-6.7979034e-02
-6.9091530e-02
-5.9385346e-02
-4.4615936e-02
-2.8068418e-02
-1.6015480e-02
-1.6567899e-02
-1.5293328e-02
-4.5435103e-03
1.2803288e-02
3.8946621e-02
7.5459114e-02
1.2136176e-01
1.6336420e-01
1.9426329e-01
2.0152058e-01
1.7221103e-01
1.3079710e-01
9.2012087e-02
5.1933344e-02
1.4066413e-02
-1.8292808e-02
-4.1960058e-02
-6.0479964e-02
-7.5320094e-02
-8.7845495e-02
-1.0053949e-01
-1.0504999e-01
-1.0108528e-01
-9.4755014e-02
-8.4178360e-02
-6.5503664e-02
-4.0061863e-02
-2.0005564e-02
-1.0001243e-02
-9.2686478e-03
-1.5495606e-02
-1.6402991e-02
-1.0403619e-02
-4.3573381e-04
1.5098253e-02
3.5878935e-02
5.9434422e-02
7.7382396e-02
8.7782570e-02
8.8397175e-02
7.4494593e-02
5.3671410e-02
2.8680022e-02
2.2321451e-04
-2.4033456e-02
-3.9688105e-02
-4.8594844e-02
-5.7861765e-02
-6.6741061e-02
-7.4072232e-02
-8.3905846e-02
-8.9607075e-02
-8.7272212e-02
-7.9819369e-02
-6.5658782e-02
-4.1135776e-02
-6.4840690e-03
2.6253933e-02
4.7527667e-02
5.2326155e-02
3.9427508e-02
2.2886490e-02
8.6846175e-03
-4.5455178e-03
-1.1460932e-02
-8.7097665e-03
1.6921671e-03
9.7638596e-03
1.0079732e-02
3.5015293e-03
-4.3537182e-03
-3.4564022e-03
1.2223275e-03
2.6738804e-03
4.6311341e-03
1.1667506e-02
2.7023286e-02
4.2661213e-02
5.0685511e-02
4.7998014e-02
3.2242953e-02
1.7007228e-02
1.1143506e-02
1.0106457e-02
9.3589970e-03
5.7839766e-03
1.3925332e-03
-5.4114447e-03
-1.3471099e-02
-1.9513064e-02
-2.7585279e-02
-3.2407087e-02
-2.6195307e-02
-1.0269475e-02
1.1443262e-02
3.5231456e-02
5.7904860e-02
7.2524556e-02
8.0090162e-02
8.4100806e-02
7.6510016e-02
5.4559266e-02
2.1810472e-02
-1.4254874e-02
-4.2745284e-02
-5.7547014e-02
-5.5461940e-02
-4.2102762e-02
-2.5336239e-02
-9.7156519e-03
1.6326404e-03
9.9773466e-03
1.1422462e-02
5.7760402e-03
-9.8462054e-04
-5.5543959e-03
-6.3564144e-03
-1.0181700e-02
-1.6345099e-02
-1.9804755e-02
-2.7804531e-02
-3.8144134e-02
-4.2861140e-02
-4.0133770e-02
-3.0441365e-02
-1.7652845e-02
-3.8380892e-03
6.0434716e-03
7.0796598e-03
4.0103220e-04
-9.8635363e-03
-1.5875653e-02
-1.6013100e-02
-1.3494564e-02
-9.0892203e-03
-4.3608312e-03
-4.5239178e-04
-2.7559116e-03
-1.0724230e-02
-1.9260353e-02
-2.8046022e-02
-3.0290386e-02
-2.7654844e-02
-2.6154036e-02
-1.9344916e-02
9.9723091e-04
3.6398675e-02
7.5209216e-02
1.0815002e-01
1.2792375e-01
1.1890286e-01
8.9572264e-02
6.3537742e-02
4.5693301e-02
3.2513542e-02
2.2399952e-02
1.4173310e-02
2.5500300e-03
-1.3952786e-02
-3.4926002e-02
-6.1716361e-02
-8.5662005e-02
-1.0399059e-01
-1.1958830e-01
-1.2967915e-01
-1.3225956e-01
-1.2483655e-01
-1.0999713e-01
-9.1121833e-02
-6.9831446e-02
-5.0187408e-02
-2.7388981e-02
4.2481747e-03
4.4760016e-02
9.0665495e-02
1.2618990e-01
1.3921107e-01
1.3231010e-01
1.1505877e-01
9.6213233e-02
7.3327340e-02
4.6455529e-02
2.1306118e-02
-2.3810324e-03
-2.6002670e-02
-4.9361597e-02
-7.0242595e-02
-8.7793033e-02
-9.7960684e-02
-9.6263581e-02
-8.5811239e-02
-6.5289760e-02
-3.3912644e-02
1.8463289e-03
3.7803726e-02
7.4100878e-02
1.1123195e-01
1.4419397e-01
1.7216759e-01
1.8480945e-01
1.5763943e-01
1.0224456e-01
5.0452828e-02
1.1307475e-02
-1.8273229e-02
-4.2870772e-02
-6.4342699e-02
-8.6138142e-02
-1.0811821e-01
-1.2573057e-01
-1.3617561e-01
-1.3123914e-01
-1.0972047e-01
-7.8647542e-02
-4.0291187e-02
5.2813241e-03
5.5680373e-02
9.4648873e-02
1.1590817e-01
1.2658018e-01
1.1988629e-01
1.0506257e-01
9.6658416e-02
9.0532698e-02
8.1129735e-02
6.2647366e-02
3.5108089e-02
4.8773395e-03
-2.1236015e-02
-3.8858202e-02
-5.2054190e-02
-6.1784347e-02
-6.4676004e-02
-6.3224396e-02
-6.2750109e-02
-6.8157341e-02
-7.7733826e-02
-8.9442222e-02
-9.9055781e-02
-1.0210156e-01
-1.0477618e-01
-1.0641969e-01
-9.9321252e-02
-8.0666001e-02
-5.3697515e-02
-2.4339903e-02
5.5959650e-03
3.0934762e-02
4.7101449e-02
5.6608576e-02
5.2379590e-02
3.0495090e-02
6.1968794e-03
-6.8909303e-03
-5.4164880e-03
7.2565423e-03
2.9137254e-02
5.8166559e-02
8.9723379e-02
1.1890339e-01
1.3119843e-01
1.2369323e-01
1.0993937e-01
9.1707724e-02
6.5791080e-02
3.6678377e-02
1.3171386e-02
-3.1550888e-03
-1.5544806e-02
-2.2697322e-02
-2.7888330e-02
-3.1864430e-02
-3.1635382e-02
-3.1114983e-02
-3.9811368e-02
-6.1378652e-02
-7.9124612e-02
-7.9572964e-02
-6.8204988e-02
-5.3537376e-02
-4.9104382e-02
-5.8640088e-02
-6.9838126e-02
-7.7482786e-02
-8.1412012e-02
-8.0862323e-02
-7.2693342e-02
-5.8066292e-02
-4.1487083e-02
-2.2268846e-02
-5.4994123e-03
1.1895047e-02
4.2201271e-02
8.7070312e-02
1.4045370e-01
1.8533795e-01
2.0565486e-01
2.0225581e-01
1.8639618e-01
1.6703355e-01
1.3768080e-01
9.8673889e-02
6.5866166e-02
4.2193096e-02
1.8773778e-02
-8.8132722e-03
-3.3200881e-02
-4.6967188e-02
-5.1160418e-02
-4.7778968e-02
-4.3436081e-02
-4.1896159e-02
-4.1610313e-02
-4.5027205e-02
-5.3673792e-02
-6.6949163e-02
-7.8390200e-02
-8.2658810e-02
-8.2869195e-02
-7.9932328e-02
-7.4737540e-02
-7.0626349e-02
-7.1701893e-02
-7.6273736e-02
-7.6748778e-02
-6.8786552e-02
-5.0734875e-02
-2.8413386e-02
-1.0180337e-02
1.8198808e-03
6.7267767e-03
7.6515379e-03
9.8472586e-03
1.4528477e-02
2.0856802e-02
2.7221949e-02
3.6673506e-02
5.2053385e-02
7.2929642e-02
9.6067475e-02
1.0670543e-01
9.8991682e-02
8.2499263e-02
6.0301586e-02
3.0797154e-02
-6.1154640e-03
-4.0231133e-02
-6.0473353e-02
-6.5568722e-02
-5.5588323e-02
-4.4653800e-02
-4.3371943e-02
-4.2458396e-02
-3.7095900e-02
-2.9469205e-02
-2.1402234e-02
-1.1865481e-02
-2.4059585e-03
4.0123171e-03
7.6856174e-03
2.1298889e-03
-1.2916682e-02
-2.5408564e-02
-2.7315407e-02
-1.8878070e-02
-6.7541441e-03
8.5331125e-03
2.9511061e-02
5.3086860e-02
7.6364962e-02
8.9732421e-02
8.7030203e-02
7.2857340e-02
5.1112207e-02
2.4910956e-02
-6.0386037e-04
-1.4203537e-02
-1.0393436e-02
5.2559969e-03
2.6186550e-02
3.8276915e-02
3.5131044e-02
2.9190280e-02
2.5322806e-02
1.7949255e-02
4.0711793e-03
-9.8918463e-03
-2.0960868e-02
-3.2965778e-02
-3.9393328e-02
-3.9296763e-02
-3.7508925e-02
-3.3134852e-02
-2.8826058e-02
-3.0171010e-02
-4.2632794e-02
-5.9509842e-02
-6.9800924e-02
-7.2207139e-02
-6.2894782e-02
-4.5673274e-02
-2.9821163e-02
-1.7058309e-02
-8.6570554e-03
-6.9522722e-03
-1.5558715e-02
-2.5820564e-02
-2.3897666e-02
-9.0124176e-03
1.6420120e-02
4.0586737e-02
5.4505418e-02
6.5006086e-02
7.3811313e-02
7.5894535e-02
6.5608065e-02
4.7463759e-02
3.0497816e-02
1.7534011e-02
1.3889652e-02
1.4562173e-02
1.1940966e-02
1.0392146e-02
1.0641198e-02
7.9409906e-03
-5.6075192e-03
-2.7419583e-02
-4.5331704e-02
-5.7032555e-02
-6.3164542e-02
-7.0855678e-02
-8.5781502e-02
-1.0104970e-01
-1.1363278e-01
-1.2441290e-01
-1.3187815e-01
-1.2800884e-01
-1.0787122e-01
-7.7715189e-02
-4.2040837e-02
-1.1448395e-02
7.6653881e-03
2.6700530e-02
5.1523930e-02
7.7629030e-02
1.0135752e-01
1.2976440e-01
1.6698173e-01
2.0485536e-01
2.3727417e-01
2.4064397e-01
2.0271489e-01
1.5593605e-01
1.1853941e-01
8.2284148e-02
4.2413336e-02
4.5911259e-03
-2.4764339e-02
-4.6347778e-02
-5.8045414e-02
-6.4738370e-02
-7.2057081e-02
-7.2770255e-02
-6.4557224e-02
-5.4102507e-02
-5.0891545e-02
-5.2773013e-02
-4.9205074e-02
-4.0315279e-02
-2.4486623e-02
-1.1191467e-02
-9.5622160e-03
-4.4664076e-03
9.7083856e-03
2.3951880e-02
3.0312357e-02
2.8515259e-02
2.2776507e-02
1.3899657e-02
8.2299831e-03
4.4948394e-03
-5.5148289e-03
-1.8043834e-02
-3.1282833e-02
-5.0537147e-02
-8.0326659e-02
-1.1371924e-01
-1.4073120e-01
-1.6188879e-01
-1.7475595e-01
-1.8173008e-01
-1.8730108e-01
-1.8560152e-01
-1.7445993e-01
-1.5860082e-01
-1.4549688e-01
-1.3692067e-01
-1.3043193e-01
-1.2681316e-01
-1.1919724e-01
-1.0003230e-01
-6.5993069e-02
-8.5293428e-03
7.5092088e-02
1.7890034e-01
2.9315840e-01
4.1336749e-01
5.3582929e-01
6.3425746e-01
6.7212617e-01
6.3020112e-01
5.2862648e-01
4.1021843e-01
2.9159056e-01
1.7003387e-01
4.6265605e-02
-6.9074463e-02
-1.5930548e-01
-2.2171754e-01
-2.5730037e-01
-2.6809367e-01
-2.6197621e-01
-2.4133528e-01
-2.0935097e-01
-1.7414066e-01
-1.4606880e-01
-1.2822925e-01
-1.1641071e-01
-1.0955484e-01
-1.0354858e-01
-9.6867667e-02
-9.2085094e-02
-8.2687708e-02
-6.4695055e-02
-4.6103060e-02
-3.5531664e-02
-2.8879214e-02
-1.7462320e-02
-4.5830122e-03
5.5568131e-03
1.0695603e-02
8.5897877e-03
5.6851318e-03
7.9462578e-03
1.3489534e-02
1.7532897e-02
2.1073494e-02
2.8653183e-02
4.0482895e-02
5.7078136e-02
6.5457802e-02
5.2317916e-02
3.4832233e-02
2.6951814e-02
2.1355367e-02
8.2334226e-03
-1.0522165e-02
-2.5440592e-02
-3.6941712e-02
-4.4660507e-02
-4.8557892e-02
-5.3864014e-02
-5.7446297e-02
-5.4507122e-02
-4.7456688e-02
-4.1212779e-02
-3.1204060e-02
-1.3113959e-02
2.9094329e-03
1.6582335e-02
3.4983202e-02
5.4781044e-02
7.0118448e-02
7.3690173e-02
6.2181816e-02
4.0882554e-02
2.3874285e-02
2.5254482e-02
4.0503117e-02
5.3558964e-02
5.1995082e-02
3.7081988e-02
2.1216759e-02
6.7859051e-03
-1.2272623e-02
-3.7461286e-02
-5.8591983e-02
-6.4520966e-02
-6.1135741e-02
-5.3872156e-02
-4.2723741e-02
-3.0986457e-02
-1.7062517e-02
-3.7038552e-04
1.3931114e-02
1.5212946e-02
4.3878146e-03
-1.5380036e-03
-1.9786142e-03
-4.6635116e-03
-1.0296652e-02
-1.8830478e-02
-2.5643607e-02
-2.5752001e-02
-2.0947525e-02
-1.7473448e-02
-1.0369430e-02
9.0503601e-03
3.2869607e-02
5.2901399e-02
6.7017253e-02
7.3772425e-02
7.7420877e-02
7.8911705e-02
7.1930143e-02
4.7181533e-02
1.0451020e-02
-1.8603760e-02
-3.6405691e-02
-4.3127538e-02
-4.0777077e-02
-3.7524964e-02
-2.7352674e-02
-1.0297607e-02
4.4392525e-04
-3.4004094e-03
-1.8385233e-02
-3.0714247e-02
-3.3234226e-02
-2.7906409e-02
-2.1544424e-02
-1.8095498e-02
-1.1093770e-02
3.7905875e-04
8.4455160e-03
5.9186712e-03
-3.3542377e-03
-8.5966603e-03
-1.0804323e-02
-8.5290213e-03
-1.8271825e-03
-9.3843629e-04
-2.6421918e-03
-5.3310706e-04
2.1276057e-03
2.8556553e-03
6.4729891e-03
1.5898761e-02
2.1722069e-02
2.5143189e-02
3.0486530e-02
2.9443344e-02
2.4547422e-02
1.9216273e-02
8.8691810e-03
-9.7840175e-03
-2.9466202e-02
-3.7588474e-02
-3.7859094e-02
-3.3744842e-02
-2.6796708e-02
-2.4352125e-02
-1.9691520e-02
-6.7833232e-03
6.7438244e-03
1.4321204e-02
1.8608946e-02
2.4378602e-02
2.7610707e-02
2.7670333e-02
2.6829994e-02
2.4422563e-02
2.7039049e-02
3.6364241e-02
4.3214960e-02
3.8871395e-02
2.7307521e-02
1.9878306e-02
1.1805179e-02
1.0358172e-03
-5.1433679e-03
-1.0477748e-02
-1.7017596e-02
-2.4107551e-02
-3.5055881e-02
-5.1326518e-02
-6.4911714e-02
-6.4901737e-02
-5.6258449e-02
-4.5592273e-02
-3.4386212e-02
-2.6227455e-02
-1.8094948e-02
-9.4942495e-03
-7.5088831e-03
-1.8783162e-02
-3.7245266e-02
-4.7629961e-02
-4.8061580e-02
-3.8161208e-02
-2.1600651e-02
-9.4638983e-03
5.2499673e-03
2.6725003e-02
4.3113258e-02
4.4936264e-02
3.6223481e-02
2.9787930e-02
2.6460428e-02
2.5935187e-02
3.1344286e-02
3.7601510e-02
4.6084043e-02
5.8297887e-02
6.6387820e-02
5.9969466e-02
3.9038448e-02
2.0874261e-02
1.2205919e-02
1.3413326e-02
2.6515079e-02
4.1679908e-02
5.2222811e-02
5.0476125e-02
2.7010416e-02
-1.3229118e-02
-5.3835323e-02
-7.7135643e-02
-7.9015516e-02
-6.6497409e-02
-4.9535682e-02
-3.4972356e-02
-1.8248692e-02
2.5557060e-04
1.2321235e-02
1.0352770e-02
-5.2023042e-03
-2.1305198e-02
-3.4794891e-02
-4.4192170e-02
-4.5335786e-02
-4.4175310e-02
-3.5685890e-02
-1.5331039e-02
5.5137927e-03
1.6625388e-02
1.8490365e-02
1.9628326e-02
2.0567534e-02
2.0889711e-02
2.3024003e-02
2.1598977e-02
1.9183219e-02
2.1499913e-02
2.4008259e-02
2.2360326e-02
2.0010118e-02
2.1887861e-02
2.3838505e-02
2.6384292e-02
3.3229783e-02
3.7126261e-02
3.8657821e-02
4.0297697e-02
3.4068888e-02
1.6387963e-02
-4.8545065e-03
-2.0348315e-02
-3.5000199e-02
-5.1408066e-02
-6.5083990e-02
-7.7339446e-02
-8.1355919e-02
-7.0056097e-02
-4.8208494e-02
-2.3630839e-02
-4.0029161e-03
6.8762642e-03
9.3162813e-03
6.0551302e-03
-1.4965788e-03
-1.3385791e-02
-2.4307254e-02
-3.1809584e-02
-3.9187225e-02
-4.7872398e-02
-5.4267567e-02
-5.1646920e-02
-4.2609254e-02
-3.0469675e-02
-1.4730035e-02
4.7040250e-04
1.7571443e-02
4.0066425e-02
6.3858576e-02
8.2347130e-02
9.3150938e-02
1.0013907e-01
9.8547975e-02
8.8366647e-02
7.6022794e-02
5.8233310e-02
4.5708204e-02
4.7105437e-02
5.0461255e-02
4.4507076e-02
2.7363282e-02
7.1067848e-03
-1.0599685e-02
-2.0086289e-02
-1.7255708e-02
-1.1634577e-02
-6.9263391e-03
-2.2050362e-03
-4.4996095e-03
-1.6647594e-02
-3.2304214e-02
-4.1358556e-02
-4.1643186e-02
-3.5191549e-02
-2.3393763e-02
-1.3031909e-02
-5.1691406e-03
1.4163112e-03
1.0845062e-03
-1.0618719e-02
-3.1139949e-02
-5.1496299e-02
-6.8170930e-02
-7.8613393e-02
-8.2005620e-02
-8.7709743e-02
-9.3235124e-02
-9.1329922e-02
-8.5646201e-02
-7.9335897e-02
-7.3117313e-02
-6.4438654e-02
-5.3872884e-02
-4.1414064e-02
-2.4161946e-02
-6.3301005e-03
1.6015914e-02
4.9407360e-02
8.9235570e-02
1.2961915e-01
1.6599473e-01
1.9587554e-01
2.0236326e-01
1.7477169e-01
1.3816944e-01
1.1044861e-01
8.9979549e-02
7.2165305e-02
4.8778539e-02
1.7590378e-02
-1.5663667e-02
-4.3947583e-02
-6.6840274e-02
-8.3156972e-02
-8.9452148e-02
-9.0217548e-02
-8.5111863e-02
-7.2417946e-02
-5.7814122e-02
-4.5214955e-02
-3.5687494e-02
-2.6256179e-02
-1.7629548e-02
-1.0089262e-02
-2.4804582e-04
9.0148839e-03
2.0252626e-02
3.3922062e-02
3.8762575e-02
2.8340801e-02
6.6016102e-03
-1.4210767e-02
-2.4188244e-02
-1.9873042e-02
-3.9373749e-03
1.1915079e-02
2.4253163e-02
3.5669593e-02
4.4109108e-02
4.8957900e-02
4.8628194e-02
4.5675354e-02
4.3216850e-02
4.1132551e-02
3.9822306e-02
3.8133460e-02
4.0252669e-02
4.2380385e-02
3.1497734e-02
5.2097499e-03
-3.3444274e-02
-7.3465016e-02
-1.0274108e-01
-1.1821816e-01
-1.1999479e-01
-1.1565161e-01
-1.0666383e-01
-8.9817360e-02
-7.0429116e-02
-5.4354331e-02
-4.5401597e-02
-3.8911877e-02
-3.0683313e-02
-2.3006614e-02
-1.3075719e-02
-1.7099346e-03
8.4000185e-03
1.7308150e-02
2.4683817e-02
3.1864771e-02
3.8657260e-02
4.8090444e-02
6.0238789e-02
7.1397831e-02
8.2385625e-02
8.9102106e-02
8.7872371e-02
7.7898927e-02
5.5248408e-02
2.3236715e-02
-9.0210047e-03
-3.2128233e-02
-4.1245341e-02
-3.9087959e-02
-2.9329239e-02
-1.4930601e-02
5.6235898e-03
3.0492896e-02
5.0017253e-02
5.8652140e-02
5.1259960e-02
3.1973762e-02
1.3540841e-02
-1.1326825e-03
-1.1102866e-02
-2.0270732e-02
-3.0836600e-02
-3.8868987e-02
-4.7135572e-02
-5.6057999e-02
-6.3310043e-02
-6.3140395e-02
-5.0980655e-02
-2.8132012e-02
8.2703823e-03
4.8657275e-02
7.6872794e-02
9.0635318e-02
9.2030674e-02
8.1387243e-02
5.8160023e-02
2.9999639e-02
4.5718563e-03
-1.7008837e-02
-3.3519434e-02
-5.0512707e-02
-7.0394864e-02
-8.8840284e-02
-1.0296987e-01
-1.1210534e-01
-1.2065167e-01
-1.2890571e-01
-1.3311397e-01
-1.3102971e-01
-1.1903676e-01
-9.9244939e-02
-7.2992511e-02
-3.6301045e-02
6.8488847e-03
4.5300560e-02
6.9783698e-02
7.8939370e-02
7.2269503e-02
4.7226729e-02
1.0453824e-02
-2.7612272e-02
-6.0416311e-02
-8.7581279e-02
-1.1533935e-01
-1.4389755e-01
-1.6831062e-01
-1.7922322e-01
-1.6835878e-01
-1.3778552e-01
-8.9262524e-02
-2.4655560e-02
5.7425714e-02
1.5625039e-01
2.6346622e-01
3.7591266e-01
4.7790612e-01
5.3962841e-01
5.4079681e-01
4.7945078e-01
3.8106979e-01
2.7647809e-01
1.8391804e-01
1.1133380e-01
5.4998784e-02
1.0888041e-02
-2.7087560e-02
-6.2805707e-02
-9.2194424e-02
-1.1241081e-01
-1.1975002e-01
-1.2135368e-01
-1.2872143e-01
-1.3544648e-01
-1.3509555e-01
-1.3064982e-01
-1.3029263e-01
-1.3590912e-01
-1.3955111e-01
-1.3977538e-01
-1.3944304e-01
-1.4216862e-01
-1.4413173e-01
-1.3608886e-01
-1.1582268e-01
-8.6072192e-02
-5.7368176e-02
-3.5941337e-02
-1.5950910e-02
6.2565790e-03
2.9148212e-02
4.8457194e-02
6.3928130e-02
7.5790196e-02
7.9443946e-02
7.4828478e-02
6.0401848e-02
3.6733314e-02
1.0882157e-02
-1.4259724e-02
-3.6271768e-02
-5.2144687e-02
-5.7831816e-02
-5.0972582e-02
-3.4312655e-02
-1.1657609e-02
7.3140189e-03
2.0744216e-02
3.3537314e-02
3.4662065e-02
2.3913159e-02
1.6587993e-02
1.4701382e-02
1.4197787e-02
1.2482195e-02
6.0972041e-03
-1.1330037e-02
-3.5593754e-02
-5.3996270e-02
-6.3442617e-02
-6.2005243e-02
-5.2198479e-02
-3.8957032e-02
-2.4515991e-02
-1.4198601e-02
-9.7760827e-03
-1.0162196e-02
-7.0181543e-03
9.3009893e-03
3.6459068e-02
7.2377791e-02
1.0158601e-01
1.0518632e-01
9.2153248e-02
7.2017373e-02
5.0465511e-02
3.2910055e-02
1.6957025e-02
6.0793326e-03
5.2695908e-05
-6.9425122e-03
-1.6159993e-02
-2.5765764e-02
-3.3920293e-02
-4.0896173e-02
-4.5843100e-02
-5.0590404e-02
-5.3701713e-02
-4.9236901e-02
-4.1788617e-02
-3.5976856e-02
-2.9462735e-02
-1.8029306e-02
2.2376079e-03
3.0104126e-02
6.2468736e-02
8.5865365e-02
9.1943695e-02
8.8876801e-02
8.2241339e-02
8.2154311e-02
8.8218227e-02
8.7776161e-02
7.8094403e-02
5.7141300e-02
2.6712878e-02
-9.4178653e-03
-4.7286004e-02
-7.7744973e-02
-9.5917945e-02
-9.7487173e-02
-8.6616435e-02
-7.3295978e-02
-5.7241745e-02
-4.0520148e-02
-2.7465255e-02
-2.2810300e-02
-2.4504390e-02
-2.2616159e-02
-2.0012073e-02
-1.7968503e-02
-1.5660489e-02
-1.8428076e-02
-2.4241170e-02
-3.2801622e-02
-4.4180690e-02
-5.2036824e-02
-4.9623006e-02
-3.5478481e-02
-2.0050727e-02
-9.6105733e-03
-3.4693354e-03
-2.0145061e-03
2.5218607e-03
1.7893612e-02
4.6026846e-02
7.5736044e-02
9.4010378e-02
1.0591391e-01
1.1127106e-01
1.1056125e-01
1.0524590e-01
8.4433477e-02
5.0794543e-02
1.6063077e-02
-1.2581891e-02
-3.4181174e-02
-4.6831055e-02
-4.4400975e-02
-3.3867154e-02
-2.3358443e-02
-1.7628496e-02
-2.2091638e-02
-3.0982247e-02
-3.7431040e-02
-3.9273867e-02
-4.0608311e-02
-4.2618472e-02
-3.9216555e-02
-3.5665598e-02
-3.4593918e-02
-3.0208418e-02
-2.2309528e-02
-1.1071786e-02
3.8449120e-03
2.0239069e-02
2.8864628e-02
2.3459090e-02
1.1660642e-02
-3.0482397e-03
-1.8242992e-02
-2.5945320e-02
-2.5261558e-02
-1.8232530e-02
-4.8578943e-03
1.5727642e-02
3.4378453e-02
4.6146134e-02
5.7884853e-02
6.1485783e-02
5.8739989e-02
5.9956813e-02
5.7661453e-02
4.9543832e-02
3.7899730e-02
2.6746977e-02
1.6673365e-02
3.1684001e-03
-7.6203008e-03
-1.6124493e-02
-2.1135699e-02
-1.8132450e-02
-1.8090069e-02
-2.5291475e-02
-3.6003384e-02
-4.6453730e-02
-5.8916158e-02
-7.8243615e-02
-9.6188100e-02
-1.1164784e-01
-1.2437956e-01
-1.2942422e-01
-1.3242807e-01
-1.3340162e-01
-1.2974183e-01
-1.2351091e-01
-1.1708025e-01
-1.0944727e-01
-9.4206920e-02
-7.4138765e-02
-4.7387303e-02
-1.6976465e-02
-7.5628458e-04
1.0865924e-02
3.7909407e-02
8.7507397e-02
1.5668649e-01
2.3593742e-01
3.1953801e-01
3.8939164e-01
4.4394305e-01
4.8358003e-01
4.6721219e-01
3.8823769e-01
2.8300439e-01
1.7455318e-01
6.7110586e-02
-4.1517801e-02
-1.3610979e-01
-2.0398446e-01
-2.4357007e-01
-2.5722397e-01
-2.5669757e-01
-2.4513857e-01
-2.2129569e-01
-1.8894207e-01
-1.5322493e-01
-1.1678864e-01
-7.8522423e-02
-4.9961589e-02
-3.7419586e-02
-3.3551306e-02
-3.7825531e-02
-4.2938707e-02
-3.8822939e-02
-2.4282148e-02
-5.2445696e-03
1.2449307e-02
3.0251036e-02
4.1478754e-02
4.6048798e-02
4.3890232e-02
1.9464068e-02
-1.7793078e-02
-4.7585433e-02
-6.3477128e-02
-6.6727389e-02
-6.3686353e-02
-5.3967339e-02
-4.2177596e-02
-2.9366426e-02
-1.3094816e-02
-5.7605382e-03
-8.0057553e-03
-6.0238610e-03
1.0998124e-02
4.2015987e-02
7.8676343e-02
1.2188626e-01
1.5849060e-01
1.7735532e-01
1.7652877e-01
1.3899634e-01
7.6667428e-02
2.2165792e-02
-1.0871255e-02
-2.5269953e-02
-3.1082978e-02
-3.0054658e-02
-2.5779619e-02
-1.9067085e-02
-1.2147921e-02
-2.1298432e-02
-4.4147698e-02
-6.5602143e-02
-7.7672354e-02
-8.1365080e-02
-8.1900185e-02
-7.7692960e-02
-7.5143018e-02
-7.4375643e-02
-6.6348114e-02
-6.0250779e-02
-6.1742790e-02
-6.2814245e-02
-5.9194105e-02
-5.3530940e-02
-4.9291092e-02
-4.5810984e-02
-4.8720304e-02
-5.4550319e-02
-4.9038223e-02
-3.7253008e-02
-2.3801715e-02
1.6790520e-03
4.6065896e-02
1.0493847e-01
1.6681768e-01
2.2528742e-01
2.6931426e-01
3.0039018e-01
3.1820008e-01
2.9223008e-01
2.2704929e-01
1.5505355e-01
9.0304067e-02
3.2576122e-02
-2.1356596e-02
-6.2159220e-02
-9.4161360e-02
-1.2466069e-01
-1.4200598e-01
-1.4558998e-01
-1.4216686e-01
-1.3439585e-01
-1.2302820e-01
-1.0724562e-01
-9.0855263e-02
-7.5292694e-02
-6.7840284e-02
-7.0155176e-02
-7.1107558e-02
-7.3750267e-02
-7.6607779e-02
-6.9228339e-02
-4.8547258e-02
-1.8647922e-02
9.7904974e-03
3.3209674e-02
4.8075917e-02
5.5483668e-02
5.7939299e-02
4.3094217e-02
1.6052647e-02
-5.5569372e-03
-1.5425924e-02
-1.5604887e-02
-9.0653233e-03
1.0920009e-02
3.8304181e-02
6.4643298e-02
8.8981304e-02
9.1732561e-02
7.0056732e-02
4.2526711e-02
2.0702780e-02
7.5183687e-03
-6.2519739e-03
-2.2602796e-02
-4.4846435e-02
-7.2523894e-02
-8.9756308e-02
-9.7785101e-02
-1.0196634e-01
-9.6032891e-02
-7.1647128e-02
-2.9788926e-02
1.3361157e-02
5.1294486e-02
8.2524036e-02
1.0897392e-01
1.3160416e-01
1.3046350e-01
1.0417026e-01
7.2884118e-02
4.6713315e-02
2.5259287e-02
1.8489653e-03
-1.8031049e-02
-2.4738405e-02
-1.7440054e-02
-1.6886119e-03
3.1119882e-03
-8.7288469e-03
-2.0898757e-02
-2.1425072e-02
-8.4925676e-03
7.7818087e-03
1.9318612e-02
2.1649880e-02
1.6985448e-02
1.7313717e-02
1.6389371e-02
6.0877934e-03
-7.6096852e-03
-1.9165426e-02
-2.6445147e-02
-3.5162482e-02
-4.5335657e-02
-5.8966981e-02
-8.1663678e-02
-1.0356081e-01
-1.1838648e-01
-1.2297659e-01
-1.1202970e-01
-8.5382099e-02
-4.8018118e-02
-1.3559948e-02
1.0459548e-02
2.1898141e-02
2.4874260e-02
2.8541504e-02
2.9060186e-02
2.7434291e-02
3.2338511e-02
4.6936423e-02
7.0794089e-02
9.7666127e-02
1.2192008e-01
1.3458040e-01
1.3062498e-01
1.1534508e-01
8.9155423e-02
5.9964471e-02
4.1788044e-02
3.7488061e-02
3.7413516e-02
2.2596448e-02
-1.1268929e-02
-4.7412076e-02
-7.2797920e-02
-8.6242316e-02
-9.4351295e-02
-9.9969664e-02
-9.7408039e-02
-8.0759104e-02
-5.4128702e-02
-3.4301206e-02
-2.3792642e-02
-1.9866845e-02
-2.3664933e-02
-2.7364828e-02
-3.3208450e-02
-4.0205101e-02
-3.8701500e-02
-2.4468866e-02
1.5398473e-03
2.7183571e-02
4.4326649e-02
5.0173923e-02
4.6405866e-02
4.0064732e-02
2.3886731e-02
-3.3311895e-03
-2.9846962e-02
-4.5540789e-02
-4.7957349e-02
-4.8962296e-02
-5.1025823e-02
-5.2676239e-02
-5.6606675e-02
-5.3310556e-02
-4.1400261e-02
-2.6724607e-02
-8.8103409e-03
1.3978784e-02
4.1856012e-02
6.7432965e-02
8.9564552e-02
1.0882491e-01
1.2586555e-01
1.3933998e-01
1.3086238e-01
1.0163874e-01
7.1987868e-02
5.3641499e-02
4.7742339e-02
4.0038411e-02
2.5607070e-02
1.1805389e-02
6.2372020e-04
-6.6220350e-03
-1.7533254e-02
-3.6813279e-02
-5.7183984e-02
-7.1571753e-02
-7.3964880e-02
-6.7291371e-02
-5.3614953e-02
-3.6355353e-02
-2.2355432e-02
-7.0069974e-03
5.6141869e-03
7.1040124e-03
-4.3915818e-04
-1.1242731e-02
-1.9406752e-02
-2.8197570e-02
-3.5315387e-02
-3.8244466e-02
-4.3235646e-02
-4.6164991e-02
-4.7997703e-02
-5.4611806e-02
-6.3610501e-02
-7.0259091e-02
-7.1680584e-02
-7.2700521e-02
-7.3353865e-02
-7.1473927e-02
-6.6750070e-02
-5.3356285e-02
-3.6220671e-02
-1.8755346e-02
6.9436152e-03
4.6644135e-02
1.0166650e-01
1.6158214e-01
2.1616805e-01
2.5309485e-01
2.5938201e-01
2.3999831e-01
1.9917273e-01
1.4359020e-01
8.3498796e-02
2.4652083e-02
-2.0452339e-02
-4.7670612e-02
-6.3904343e-02
-7.8430426e-02
-9.2329460e-02
-9.3490535e-02
-8.4427929e-02
-7.4964491e-02
-6.5663897e-02
-5.7364644e-02
-5.1811622e-02
-5.6574485e-02
-6.9980019e-02
-8.3564724e-02
-9.4624858e-02
-9.5847034e-02
-8.9736849e-02
-8.0929576e-02
-6.6219311e-02
-4.5350141e-02
-1.9381647e-02
4.7996006e-03
2.6658717e-02
4.7508283e-02
5.5638627e-02
5.0999884e-02
4.3746590e-02
3.8026518e-02
3.7487561e-02
4.5379027e-02
6.0156782e-02
7.0649764e-02
7.1973954e-02
6.4477784e-02
4.6632356e-02
3.2433744e-02
2.7439473e-02
2.1715006e-02
1.1134367e-02
-3.6431117e-03
-1.7297451e-02
-3.2578377e-02
-5.1147521e-02
-6.8084449e-02
-8.2528118e-02
-8.6738712e-02
-8.0252611e-02
-7.0130877e-02
-5.6656675e-02
-3.8608213e-02
-1.5478505e-02
4.5441530e-03
1.4828004e-02
1.6407299e-02
1.0621875e-02
4.0527008e-03
1.8139061e-03
6.2445860e-03
1.6393236e-02
2.8333400e-02
4.3270372e-02
5.6462173e-02
6.2591460e-02
5.8554006e-02
4.1917131e-02
2.2646617e-02
4.7403642e-03
-1.2549297e-02
-2.3462058e-02
-2.5204203e-02
-1.7180186e-02
-1.8553075e-03
2.1776114e-02
5.2043181e-02
6.7366188e-02
5.8616059e-02
4.4619087e-02
3.6374535e-02
3.0341763e-02
2.4129109e-02
2.0608714e-02
1.6179923e-02
6.9421813e-03
-4.5554126e-03
-1.8547270e-02
-2.9700550e-02
-3.4269982e-02
-3.3493221e-02
-2.6944393e-02
-1.5675499e-02
-5.0278876e-04
1.1436944e-02
1.7863596e-02
2.2653704e-02
2.1914941e-02
1.5987239e-02
4.7676180e-03
-1.2565182e-02
-3.6151574e-02
-6.6956248e-02
-9.1506301e-02
-1.0018697e-01
-9.4197863e-02
-7.6337015e-02
-5.5659630e-02
-3.6121432e-02
-1.8596546e-02
-4.5849146e-03
8.0822292e-03
2.0823505e-02
3.5808976e-02
4.9716834e-02
5.8917514e-02
6.5229136e-02
6.7323375e-02
6.7676372e-02
6.6064045e-02
5.7901612e-02
4.5174498e-02
3.2829750e-02
2.3845472e-02
9.5916812e-03
-1.4370315e-02
-3.9596156e-02
-6.1614392e-02
-7.5627174e-02
-8.1402834e-02
-8.2211180e-02
-7.8628047e-02
-7.2004875e-02
-5.9582321e-02
-4.3646794e-02
-2.6221325e-02
-6.4891642e-03
6.7302887e-03
1.0842383e-02
9.4519675e-03
3.8439659e-03
-4.6986993e-03
-1.4557515e-02
-1.7024606e-02
-1.4986269e-02
-1.5160191e-02
-9.1941154e-03
1.6948193e-03
1.3137638e-02
2.6546319e-02
4.2070696e-02
5.9834865e-02
7.7991989e-02
9.8932755e-02
1.1515844e-01
1.1926800e-01
1.2168388e-01
1.2257197e-01
1.1519581e-01
9.6380192e-02
6.7752473e-02
3.7197466e-02
7.6025931e-03
-1.6736321e-02
-3.5776181e-02
-5.1002076e-02
-5.7877361e-02
-6.2395003e-02
-7.0189689e-02
-7.6946351e-02
-7.8570039e-02
-7.3164193e-02
-6.2173269e-02
-4.5627532e-02
-2.3666347e-02
4.2371981e-03
3.5234844e-02
5.0423080e-02
3.9322186e-02
1.3693438e-02
-1.4132176e-02
-3.7430479e-02
-5.3361687e-02
-6.2231617e-02
-6.8847192e-02
-7.4608208e-02
-7.5582858e-02
-7.6945253e-02
-8.5871063e-02
-1.0009962e-01
-1.1098030e-01
-1.1223939e-01
-1.0257787e-01
-8.0676835e-02
-5.0663621e-02
-1.7378983e-02
1.7889873e-02
4.9525203e-02
7.7783272e-02
1.0895687e-01
1.4510529e-01
1.8066543e-01
1.9801133e-01
1.8902987e-01
1.6264743e-01
1.2789981e-01
9.4433784e-02
6.5644991e-02
4.1385417e-02
2.3268601e-02
9.6940818e-03
-1.8954709e-03
-1.4144703e-02
-2.5702737e-02
-3.7521074e-02
-4.9756207e-02
-5.7460268e-02
-6.3705381e-02
-7.1734979e-02
-8.0355553e-02
-8.6619278e-02
-8.6454063e-02
-8.0287121e-02
-6.8482953e-02
-5.5960722e-02
-4.6231063e-02
-3.7127574e-02
-3.4426419e-02
-3.8839339e-02
-4.4726672e-02
-5.1739041e-02
-5.9567319e-02
-6.8073288e-02
-7.4527959e-02
-7.7282421e-02
-7.6534350e-02
-7.1577098e-02
-6.7659836e-02
-6.3970364e-02
-5.2955625e-02
-3.4883573e-02
-1.0913365e-02
2.0188872e-02
5.8644234e-02
9.7068432e-02
1.2797364e-01
1.5298561e-01
1.6340243e-01
1.5609328e-01
1.4427783e-01
1.3455136e-01
1.2385564e-01
9.4946142e-02
4.0898252e-02
-1.6910979e-02
-5.8069030e-02
-7.5372718e-02
-8.1750391e-02
-9.1699199e-02
-1.0106279e-01
-1.0695191e-01
-1.1099639e-01
-1.1186430e-01
-1.0129940e-01
-8.0504352e-02
-5.6952391e-02
-2.8939727e-02
-8.0805037e-03
2.8020204e-03
1.9689967e-02
3.9723438e-02
4.9911424e-02
4.7564893e-02
4.9617974e-02
5.9782107e-02
6.4215733e-02
6.8714123e-02
7.6958848e-02
9.7768662e-02
1.3799833e-01
1.8085012e-01
2.1046225e-01
2.2113218e-01
2.2906781e-01
2.3742802e-01
2.2673722e-01
2.0149256e-01
1.6145618e-01
1.0640334e-01
4.9533013e-02
-9.4638780e-03
-7.0538705e-02
-1.2508636e-01
-1.5975922e-01
-1.7183964e-01
-1.6782160e-01
-1.4981698e-01
-1.2523663e-01
-9.9686537e-02
-7.5076156e-02
-5.7565177e-02
-5.4898885e-02
-7.3681061e-02
-1.0358996e-01
-1.2745484e-01
-1.3925476e-01
-1.3716960e-01
-1.3075468e-01
-1.2785483e-01
-1.2423396e-01
-1.1948939e-01
-1.1557051e-01
-1.1236147e-01
-1.0442428e-01
-9.2178004e-02
-7.9109432e-02
-6.2551422e-02
-4.9840727e-02
-3.9946917e-02
-1.8291379e-02
1.7000109e-02
6.2325138e-02
1.1869540e-01
1.9221692e-01
2.6860907e-01
3.2360029e-01
3.5429841e-01
3.4573930e-01
2.9939459e-01
2.4800875e-01
2.0222809e-01
1.5374625e-01
9.8886308e-02
4.7804204e-02
6.4552892e-03
-2.6268068e-02
-4.3134427e-02
-4.5184099e-02
-3.9943082e-02
-3.1740021e-02
-2.6784671e-02
-3.1915826e-02
-5.2293721e-02
-7.9871317e-02
-1.0408229e-01
-1.2305000e-01
-1.3469814e-01
-1.4522508e-01
-1.5755582e-01
-1.6440981e-01
-1.6462728e-01
-1.6408950e-01
-1.6945109e-01
-1.7275153e-01
-1.6213171e-01
-1.4151315e-01
-1.1940142e-01
-1.0339533e-01
-9.3680915e-02
-8.2296384e-02
-6.6885160e-02
-4.8200472e-02
-2.5397427e-02
7.8962441e-03
5.2905911e-02
1.0450121e-01
1.5892164e-01
1.9074230e-01
1.8709118e-01
1.7372953e-01
1.6642377e-01
1.5928282e-01
1.4744613e-01
1.4130601e-01
1.4294383e-01
1.4612863e-01
1.6278850e-01
1.7252876e-01
1.4548953e-01
1.0381810e-01
6.6147192e-02
2.7724802e-02
-1.4237150e-02
-5.2146612e-02
-7.9682469e-02
-9.9663720e-02
-1.1137015e-01
-1.2043729e-01
-1.2861824e-01
-1.2984067e-01
-1.2450114e-01
-1.1590235e-01
-1.0976300e-01
-1.0509331e-01
-9.9628970e-02
-9.3523111e-02
-8.1860989e-02
-6.9271265e-02
-5.8178975e-02
-4.0270969e-02
-1.0772536e-02
2.5785546e-02
5.2199982e-02
5.7780572e-02
4.4058067e-02
1.7928111e-02
-4.0817837e-03
-1.6073217e-02
-2.0361806e-02
-1.3942199e-02
-2.2314998e-03
7.7211149e-03
1.4975150e-02
2.3345227e-02
2.9285642e-02
2.6373733e-02
2.2932534e-02
2.0409315e-02
1.8205913e-02
2.3501827e-02
3.5748343e-02
4.9347944e-02
5.7728315e-02
6.6601896e-02
7.7428873e-02
8.2175298e-02
8.3731899e-02
7.1502875e-02
4.0472651e-02
7.2500371e-03
-1.9389062e-02
-3.9424819e-02
-5.4970387e-02
-6.5614846e-02
-7.2879598e-02
-7.6810409e-02
-7.6219666e-02
-8.2885763e-02
-1.0083160e-01
-1.1773990e-01
-1.2658296e-01
-1.2807921e-01
-1.2664973e-01
-1.2277740e-01
-1.1869211e-01
-1.1647237e-01
-1.0826452e-01
-9.8168024e-02
-8.8344986e-02
-6.4480177e-02
-2.0291276e-02
4.0901914e-02
1.1484530e-01
2.0109868e-01
2.8385720e-01
3.4785946e-01
4.0035140e-01
4.1622740e-01
3.7972945e-01
3.2842081e-01
2.7730939e-01
2.1837460e-01
1.4787357e-01
7.1504013e-02
-1.4836386e-03
-7.2197834e-02
-1.3040776e-01
-1.6637163e-01
-1.8218414e-01
-1.8267018e-01
-1.7308049e-01
-1.5645435e-01
-1.3932998e-01
-1.2557904e-01
-1.1374634e-01
-1.0049415e-01
-8.3640003e-02
-7.1057561e-02
-6.6842560e-02
-6.4703642e-02
-5.9840752e-02
-5.0083754e-02
-3.7118630e-02
-2.2126450e-02
-8.5268207e-03
1.4696096e-03
1.0677734e-02
1.2987825e-02
6.2858425e-03
-6.4827350e-04
-3.7015932e-03
-4.5493620e-03
-5.1757381e-03
-1.8269090e-03
6.8752381e-03
1.8501842e-02
3.2263464e-02
3.9372138e-02
3.4516153e-02
2.4232258e-02
1.5015701e-02
9.9144391e-03
6.3318151e-03
1.4877969e-03
-5.7308714e-03
-1.6118581e-02
-2.7829165e-02
-3.9934860e-02
-5.0087909e-02
-5.6281004e-02
-5.7495344e-02
-5.1772192e-02
-4.1208071e-02
-2.7639338e-02
-1.3333022e-02
-2.0662832e-03
4.6884888e-03
2.9459412e-03
-5.8458034e-03
-1.4108946e-02
-1.7648592e-02
-1.3821394e-02
-2.8394836e-03
1.4765411e-02
3.8725495e-02
7.0875005e-02
1.0905667e-01
1.2814038e-01
1.1558903e-01
9.3138112e-02
7.3517383e-02
5.4324598e-02
3.3947629e-02
1.5250192e-02
1.1561820e-03
-7.3627263e-03
-8.9222262e-03
-8.5290657e-03
-6.7388937e-03
1.6424960e-03
1.5473362e-02
2.9767182e-02
3.8302329e-02
4.0548650e-02
3.4729896e-02
1.9627915e-02
4.7622211e-03
-5.4102917e-03
-1.2748091e-02
-2.1631909e-02
-3.3804765e-02
-5.1359490e-02
-7.7540825e-02
-9.9826121e-02
-1.0824939e-01
-1.0592855e-01
-9.4627040e-02
-8.0810367e-02
-6.9299652e-02
-5.6385580e-02
-4.1495275e-02
-2.6321566e-02
-1.2101566e-02
3.3580974e-03
1.7554389e-02
2.4802365e-02
2.7745987e-02
2.6803459e-02
2.4226402e-02
2.4394608e-02
2.8539412e-02
3.8928350e-02
5.6237112e-02
7.9249425e-02
9.9662211e-02
1.1526180e-01
1.2537584e-01
1.1566142e-01
9.0456194e-02
6.2379241e-02
3.2092978e-02
3.3561965e-03
-2.2282021e-02
-4.2122828e-02
-5.9894236e-02
-8.1743309e-02
-1.0177631e-01
-1.1752542e-01
-1.2652908e-01
-1.2664549e-01
-1.1855501e-01
-1.0530649e-01
-9.3490564e-02
-7.9162088e-02
-5.8632823e-02
-3.2475798e-02
1.4610162e-03
3.2473549e-02
5.1959101e-02
6.8696717e-02
8.8912556e-02
1.0852804e-01
1.1220944e-01
9.3757291e-02
6.8623493e-02
4.9849920e-02
3.6518033e-02
1.9915438e-02
3.7695657e-04
-1.7902960e-02
-3.7547480e-02
-5.8357124e-02
-7.5954612e-02
-8.4888152e-02
-8.6564444e-02
-8.0501793e-02
-6.4274811e-02
-4.3484282e-02
-1.6329089e-02
1.7375368e-02
4.9745618e-02
7.5114927e-02
9.2238418e-02
1.0804791e-01
1.1737011e-01
1.1517151e-01
1.0464083e-01
7.5224444e-02
3.3989785e-02
-1.8469027e-03
-3.1680641e-02
-5.4756647e-02
-6.7263350e-02
-6.6657684e-02
-5.9570259e-02
-5.2449455e-02
-4.3135204e-02
-3.7500610e-02
-3.9384602e-02
-4.2900378e-02
-4.5497400e-02
-4.6513441e-02
-4.2246426e-02
-2.5947751e-02
1.1983204e-03
3.5151341e-02
7.0364606e-02
9.2648414e-02
1.0132252e-01
1.0572685e-01
1.0802159e-01
1.0187145e-01
7.6921994e-02
3.7978904e-02
-3.2258530e-03
-4.0700586e-02
-6.4962991e-02
-7.1882604e-02
-6.4415175e-02
-4.6058564e-02
-2.1081279e-02
6.2404961e-03
3.0472148e-02
5.0807706e-02
5.7261266e-02
4.5209580e-02
2.5995841e-02
6.3864418e-04
-2.3304030e-02
-4.2806423e-02
-6.5867859e-02
-8.9924384e-02
-1.0742076e-01
-1.0852286e-01
-9.4977474e-02
-7.4376939e-02
-5.1931885e-02
-3.5902172e-02
-2.3589499e-02
-1.3093065e-02
-8.2667782e-03
-5.6215319e-03
6.4040733e-04
1.5537181e-02
3.6536940e-02
5.8576734e-02
7.2776363e-02
6.7544365e-02
5.1639586e-02
3.6969450e-02
2.2238001e-02
7.4651641e-03
-2.5498336e-03
-2.5011261e-03
3.4608263e-03
1.3058633e-02
2.9259246e-02
4.6155162e-02
6.0419737e-02
7.0152892e-02
7.4174385e-02
7.2785936e-02
6.1405476e-02
4.4126357e-02
2.5035063e-02
4.1608682e-03
-1.2907516e-02
-2.9758291e-02
-5.0557466e-02
-7.1543406e-02
-9.2453116e-02
-1.1235816e-01
-1.2550267e-01
-1.2716802e-01
-1.2209759e-01
-1.1307097e-01
-1.0152636e-01
-9.1836940e-02
-7.5274069e-02
-4.7049608e-02
-1.3850989e-02
2.1609006e-02
5.9732736e-02
1.0175227e-01
1.4143841e-01
1.7499288e-01
1.9148807e-01
1.7156746e-01
1.2854263e-01
8.3697033e-02
4.3375622e-02
1.3083749e-02
-4.4523844e-03
-1.0883251e-02
-1.7140133e-02
-2.8494269e-02
-4.4064203e-02
-6.2481422e-02
-7.0994278e-02
-6.7856570e-02
-6.0440728e-02
-4.5576538e-02
-1.6811439e-02
2.6934172e-02
7.2318545e-02
1.0788545e-01
1.2499368e-01
1.1833888e-01
1.0389805e-01
8.7055507e-02
6.1759007e-02
3.1638648e-02
3.0324375e-03
-1.5132743e-02
-3.0300203e-02
-5.1883130e-02
-7.7803981e-02
-1.0629218e-01
-1.2398718e-01
-1.2829355e-01
-1.2790972e-01
-1.2189943e-01
-1.0799468e-01
-8.6944031e-02
-6.6895462e-02
-4.8076366e-02
-3.1400866e-02
-2.6676965e-02
-2.7408884e-02
-2.8564715e-02
-3.1315752e-02
-3.0910038e-02
-2.6250040e-02
-1.8547653e-02
-1.3146981e-02
-1.0816394e-02
-1.3240325e-02
-2.1322107e-02
-2.0263669e-02
-8.4525778e-03
6.5481315e-03
2.6767588e-02
5.5064975e-02
9.0947655e-02
1.2485371e-01
1.5187505e-01
1.6231143e-01
1.4807532e-01
1.2535667e-01
9.6742217e-02
5.9471078e-02
2.5174512e-02
4.4298960e-03
2.6512122e-03
1.0189544e-02
1.9188819e-02
2.0375490e-02
9.1202373e-03
1.4327800e-03
-2.6461994e-03
-1.1791321e-02
-3.1186932e-02
-6.4481346e-02
-1.0027121e-01
-1.3309717e-01
-1.5884428e-01
-1.6980587e-01
-1.6977194e-01
-1.6492920e-01
-1.6366059e-01
-1.6698309e-01
-1.6648254e-01
-1.5426128e-01
-1.2428473e-01
-8.1509255e-02
-3.1443429e-02
1.4303740e-02
4.4558151e-02
6.6338767e-02
7.9444781e-02
8.7535237e-02
1.0537304e-01
1.4157352e-01
1.9888788e-01
2.6410966e-01
3.2498219e-01
3.6504061e-01
3.5928507e-01
3.1261774e-01
2.3929299e-01
1.5269025e-01
7.3516127e-02
1.2748565e-02
-3.2764816e-02
-7.5062185e-02
-1.1179528e-01
-1.4578249e-01
-1.8542192e-01
-2.2932561e-01
-2.8826169e-01
-3.5219499e-01
-3.9548497e-01
-4.1174234e-01
-4.0235779e-01
-3.7398190e-01
-3.2879629e-01
-2.7711832e-01
-2.2834720e-01
-1.6407898e-01
-8.6739388e-02
-1.7265598e-02
4.7269807e-02
1.2193273e-01
2.1215968e-01
3.0452519e-01
3.8873704e-01
4.5708295e-01
5.1112264e-01
5.5718287e-01
5.6570309e-01
5.2269957e-01
4.4161819e-01
3.3697773e-01
2.4295822e-01
1.8126233e-01
1.5821736e-01
1.6163352e-01
1.7291131e-01
1.7736854e-01
1.3190793e-01
3.3859373e-02
-7.4760099e-02
-1.7428701e-01
-2.5628921e-01
-3.1562697e-01
-3.4499850e-01
-3.4551823e-01
-3.2454205e-01
-2.9900730e-01
-2.9486543e-01
-3.0119449e-01
-2.9402954e-01
-2.6683983e-01
-2.2259652e-01
-1.7404848e-01
-1.2819029e-01
-9.3772346e-02
-7.1106619e-02
-4.8723578e-02
-3.4217474e-02
-2.9033191e-02
-1.8448375e-02
5.9014628e-03
3.9787539e-02
7.1737111e-02
1.0055075e-01
1.2193929e-01
1.3052992e-01
1.3259700e-01
1.2135577e-01
9.4190932e-02
6.6749878e-02
5.0636525e-02
4.4240966e-02
3.8535548e-02
3.5611287e-02
4.0074438e-02
5.7843756e-02
7.4582720e-02
5.5776391e-02
1.2688679e-02
-1.9671615e-02
-2.5348407e-02
-1.0458050e-02
1.1688969e-02
4.7355489e-02
8.4982699e-02
1.1189235e-01
1.2552238e-01
9.6514743e-02
3.1288292e-02
-2.6789046e-02
-5.8011889e-02
-6.7704378e-02
-6.5801345e-02
-5.0848291e-02
-2.7930718e-02
1.0173662e-03
2.5307837e-02
6.4990394e-03
-5.4108417e-02
-1.1858660e-01
-1.6656871e-01
-1.9627447e-01
-2.1107589e-01
-2.1068670e-01
-2.0608506e-01
-2.0030955e-01
-1.8863479e-01
-1.8713318e-01
-1.9614838e-01
-1.9966568e-01
-1.8923181e-01
-1.6272827e-01
-1.2271638e-01
-6.6136675e-02
-8.9996680e-04
7.2058237e-02
1.5581952e-01
2.2283086e-01
2.7092650e-01
3.2665243e-01
3.9785670e-01
4.6445573e-01
4.9274202e-01
4.8377267e-01
4.5311162e-01
4.1588699e-01
3.7303901e-01
2.8237201e-01
1.4361566e-01
1.1170172e-02
-8.2356420e-02
-1.4430543e-01
-1.8810781e-01
-2.0245061e-01
-1.9542211e-01
-1.8393809e-01
-1.7420543e-01
-1.8446876e-01
-2.0578345e-01
-2.1608527e-01
-2.0862676e-01
-1.8885560e-01
-1.6599836e-01
-1.3596997e-01
-1.1507392e-01
-1.1789334e-01
-1.2905984e-01
-1.4585524e-01
-1.6570562e-01
-1.7623476e-01
-1.7254915e-01
-1.6300987e-01
-1.5450072e-01
-1.4227063e-01
-1.4019810e-01
-1.4970471e-01
-1.4952007e-01
-1.3717387e-01
-1.1281855e-01
-7.1877506e-02
-9.6275320e-03
7.1614827e-02
1.6555404e-01
2.7474992e-01
3.8440465e-01
4.8094145e-01
5.6126671e-01
5.9833868e-01
5.6867779e-01
4.7740333e-01
3.5728999e-01
2.5445933e-01
1.8898677e-01
1.4823044e-01
1.1487183e-01
9.1459622e-02
7.2771519e-02
3.8028512e-02
-3.3895202e-03
-3.0392775e-02
-3.9960278e-02
-4.5196062e-02
-5.6151520e-02
-6.7493827e-02
-7.9230152e-02
-8.8452729e-02
-1.0668194e-01
-1.5243468e-01
-2.0429435e-01
-2.3961787e-01
-2.5861193e-01
-2.7137518e-01
-2.8398315e-01
-2.8930547e-01
-2.8652535e-01
-2.7699102e-01
-2.5737964e-01
-2.2084925e-01
-1.6315780e-01
-9.1068950e-02
-1.0480253e-02
7.0501346e-02
1.4567570e-01
2.1013126e-01
2.4468479e-01
2.4646331e-01
2.3311641e-01
2.1423399e-01
1.9210192e-01
1.6652822e-01
1.3759978e-01
9.8273612e-02
4.8975363e-02
7.3868048e-03
-2.2149934e-02
-4.5528015e-02
-7.0675143e-02
-1.0232527e-01
-1.3033216e-01
-1.4773190e-01
-1.5723687e-01
-1.6998754e-01
-1.9161108e-01
-2.1157039e-01
-2.2179720e-01
-2.2132543e-01
-2.1333523e-01
-1.9813373e-01
-1.7431355e-01
-1.4505367e-01
-1.1130644e-01
-8.2371006e-02
-6.2591082e-02
-4.2552036e-02
-2.5630765e-02
-1.2126534e-02
-1.4609483e-03
2.0115966e-03
9.9864861e-03
3.3511914e-02
7.3901118e-02
1.2129932e-01
1.6852028e-01
2.1693187e-01
2.5525390e-01
2.8352709e-01
2.9330049e-01
2.6418378e-01
2.1512989e-01
1.6799354e-01
1.3237595e-01
9.7392653e-02
4.6228091e-02
-2.2530837e-03
-3.1170745e-02
-2.6829158e-02
6.7782955e-03
4.0024585e-02
5.9865055e-02
5.9855827e-02
4.7657576e-02
3.8003387e-02
3.1447494e-02
3.0573695e-02
3.6074422e-02
5.7987511e-02
9.0230845e-02
9.6592086e-02
6.7108053e-02
1.3557747e-02
-4.7987367e-02
-9.2643883e-02
-1.0605368e-01
-9.6858787e-02
-8.7072893e-02
-8.3559635e-02
-7.8795293e-02
-6.7650473e-02
-4.9536979e-02
-2.9699583e-02
-1.0153104e-02
1.0202658e-02
3.3182908e-02
5.5881519e-02
7.4092149e-02
9.1320543e-02
9.6730658e-02
7.7697366e-02
4.1908859e-02
-4.5127934e-04
-4.1822606e-02
-7.8157358e-02
-1.0280391e-01
-1.1360296e-01
-1.1754260e-01
-1.1810442e-01
-1.2324419e-01
-1.3437923e-01
-1.4113337e-01
-1.3608943e-01
-1.1886059e-01
-9.6155311e-02
-7.0797568e-02
-4.4023593e-02
-1.7860417e-02
8.0453872e-03
2.9581680e-02
4.6879454e-02
6.1328140e-02
7.0600607e-02
7.4846117e-02
7.3301680e-02
7.2042936e-02
7.7700127e-02
8.7713100e-02
9.8833973e-02
1.0338651e-01
9.6244301e-02
7.9211259e-02
5.2900756e-02
2.2330792e-02
-5.6840026e-03
-2.5218588e-02
-3.5080568e-02
-3.9735583e-02
-4.2973374e-02
-5.1574119e-02
-6.3999884e-02
-7.2259441e-02
-7.2915390e-02
-6.3664263e-02
-4.9078928e-02
-3.4676869e-02
-2.3278576e-02
-1.4859462e-02
-4.9370378e-03
4.7265224e-03
1.2392842e-02
1.8230509e-02
1.8670002e-02
1.2558291e-02
2.0240964e-03
-7.6816895e-03
-1.6224880e-02
-2.5842117e-02
-3.3818537e-02
-4.3123537e-02
-5.5910160e-02
-6.9800491e-02
-8.6533337e-02
-1.0647585e-01
-1.2539096e-01
-1.3738696e-01
-1.4324510e-01
-1.4456777e-01
-1.3766433e-01
-1.2276645e-01
-9.8491696e-02
-6.5161541e-02
-2.7345717e-02
1.5383232e-02
6.7411845e-02
1.3188788e-01
1.9751444e-01
2.5282818e-01
3.0506462e-01
3.4994165e-01
3.6173243e-01
3.1955029e-01
2.2694215e-01
1.1543864e-01
2.1783879e-02
-3.7321587e-02
-7.0520975e-02
-9.4748735e-02
-1.1608808e-01
-1.2716120e-01
-1.1934963e-01
-9.6060105e-02
-6.7303840e-02
-4.2778171e-02
-2.7270016e-02
-1.5389722e-02
-2.3202800e-03
1.2536568e-02
3.0143596e-02
4.7451537e-02
6.1913416e-02
7.3146928e-02
7.9750004e-02
7.6742870e-02
6.1788195e-02
4.3573869e-02
1.8634629e-02
-2.1585036e-02
-7.1490498e-02
-1.2682666e-01
-1.8204154e-01
-2.2995148e-01
-2.6597852e-01
-2.8779572e-01
-2.9455220e-01
-2.8349574e-01
-2.5788709e-01
-2.1862624e-01
-1.6370064e-01
