5.9858690e-05
7.2939367e-05
9.2481549e-05
1.2159558e-04
1.6321945e-04
2.1984511e-04
2.9310012e-04
3.8322475e-04
4.8853100e-04
6.0496427e-04
7.2589951e-04
8.4228564e-04
9.4320422e-04
1.0168388e-03
1.0517708e-03
1.0384453e-03
9.7059690e-04
8.4641039e-04
6.6921114e-04
4.4754192e-04
1.9456811e-04
-7.3144352e-05
-3.3733328e-04
-5.7999818e-04
-7.8533430e-04
-9.4136679e-04
-1.0410651e-03
-1.0828149e-03
-1.0702370e-03
-1.0114431e-03
-9.1788246e-04
-8.0295543e-04
-6.8055870e-04
-5.6369114e-04
-4.6321949e-04
-3.8688555e-04
-3.3863453e-04
-3.1834159e-04
-3.2199430e-04
-3.4234664e-04
-3.6999637e-04
-3.9474804e-04
-4.0705008e-04
-3.9930584e-04
-3.6689175e-04
-3.0872743e-04
-2.2730346e-04
-1.2816662e-04
-1.8945441e-05
9.1928838e-05
1.9659830e-04
2.8902177e-04
3.6587414e-04
4.2695142e-04
4.7502327e-04
5.1517449e-04
5.5375990e-04
5.9714933e-04
6.5045712e-04
7.1643919e-04
7.9470763e-04
8.8136531e-04
9.6910891e-04
1.0477928e-03
1.1053962e-03
1.1292938e-03
1.1076931e-03
1.0310778e-03
8.9348543e-04
6.9346460e-04
4.3459970e-04
1.2554220e-04
-2.2045165e-04
-5.8642328e-04
-9.5295756e-04
-1.2996486e-03
-1.6066510e-03
-1.8561792e-03
-2.0338143e-03
-2.1294846e-03
-2.1380249e-03
-2.0593151e-03
-1.8980981e-03
-1.6635429e-03
-1.3684841e-03
-1.0283108e-03
-6.5962750e-04
-2.7887488e-04
9.8901331e-05
4.6098030e-04
7.9749381e-04
1.1015138e-03
1.3687263e-03
1.5967744e-03
1.7844004e-03
1.9305409e-03
2.0335389e-03
2.0906232e-03
2.0977661e-03
2.0499661e-03
1.9419221e-03
1.7689963e-03
1.5283182e-03
1.2198698e-03
8.4740512e-04
4.1908696e-04
-5.2246561e-05
-5.4923343e-04
-1.0505736e-03
-1.5320336e-03
-1.9678271e-03
-2.3322978e-03
-2.6017974e-03
-2.7566177e-03
-2.7828054e-03
-2.6736726e-03
-2.4308216e-03
-2.0645284e-03
-1.5933910e-03
-1.0432252e-03
-4.4531918e-04
1.6583377e-04
7.5516231e-04
1.2895963e-03
1.7402742e-03
2.0842975e-03
2.3059813e-03
2.3975636e-03
2.3593798e-03
2.1995373e-03
1.9331395e-03
1.5811188e-03
1.1687461e-03
7.2390303e-04
2.7521854e-04
-1.4981222e-04
-5.2660334e-04
-8.3502393e-04
-1.0605956e-03
-1.1952388e-03
-1.2374964e-03
-1.1922148e-03
-1.0697199e-03
-8.8458822e-04
-6.5415113e-04
-3.9690030e-04
-1.3096038e-04
1.2722507e-04
3.6389222e-04
5.6858997e-04
7.3444465e-04
8.5808802e-04
9.3930086e-04
9.8043673e-04
9.8569884e-04
9.6034985e-04
9.0993589e-04
8.3960310e-04
7.5357477e-04
6.5483913e-04
5.4508782e-04
4.2489037e-04
2.9400996e-04
1.5179623e-04
-2.3691160e-06
-1.6862655e-04
-3.4625475e-04
-5.3339757e-04
-7.2693682e-04
-9.2252426e-04
-1.1147631e-03
-1.2975093e-03
-1.4642496e-03
-1.6085143e-03
-1.7242817e-03
-1.8063436e-03
-1.8505990e-03
-1.8542608e-03
-1.8159678e-03
-1.7358138e-03
-1.6153062e-03
-1.4572678e-03
-1.2656906e-03
-1.0455424e-03
-8.0252804e-04
-5.4280673e-04
-2.7267678e-04
1.7459601e-06
2.7481504e-04
5.4155814e-04
7.9775855e-04
1.0398925e-03
1.2649294e-03
1.4700347e-03
1.6522440e-03
1.8081964e-03
1.9340131e-03
2.0253817e-03
2.0778649e-03
2.0874072e-03
2.0509877e-03
1.9672284e-03
1.8366797e-03
1.6617984e-03
1.4468227e-03
1.1976249e-03
9.2152781e-04
6.2706273e-04
3.2365483e-04
2.1234649e-05
-2.7020684e-04
-5.4108906e-04
-7.8269990e-04
-9.8760391e-04
-1.1499740e-03
-1.2658343e-03
-1.3332121e-03
-1.3522065e-03
-1.3249870e-03
-1.2557335e-03
-1.1505196e-03
-1.0171269e-03
-8.6476293e-04
-7.0365627e-04
-5.4450808e-04
-3.9780440e-04
-2.7302437e-04
-1.7781457e-04
-1.1722343e-04
-9.3097614e-05
-1.0373453e-04
-1.4386384e-04
-2.0499536e-04
-2.7612183e-04
-3.4471072e-04
-3.9787548e-04
-4.2359587e-04
-4.1185907e-04
-3.5560761e-04
-2.5139730e-04
-9.9674525e-05
9.5311537e-05
3.2574274e-04
5.8051108e-04
8.4572209e-04
1.1055190e-03
1.3431533e-03
1.5422001e-03
1.6878134e-03
1.7679164e-03
1.7742196e-03
1.7029682e-03
1.5553330e-03
1.3373926e-03
1.0597077e-03
7.3653336e-04
3.8475696e-04
2.2667478e-05
-3.3133035e-04
-6.5995089e-04
-9.4811839e-04
-1.1838391e-03
-1.3588042e-03
-1.4687037e-03
-1.5132598e-03
-1.4960099e-03
-1.4238790e-03
-1.3065754e-03
-1.1558504e-03
-9.8465721e-04
-8.0626062e-04
-6.3334895e-04
-4.7720700e-04
-3.4699954e-04
-2.4920483e-04
-1.8722781e-04
-1.6121722e-04
-1.6810652e-04
-2.0188845e-04
-2.5411894e-04
-3.1461322e-04
-3.7226726e-04
-4.1590837e-04
-4.3511456e-04
-4.2103735e-04
-3.6723127e-04
-2.7041494e-04
-1.3106643e-04
4.6250602e-05
2.5291498e-04
4.7667500e-04
7.0246435e-04
9.1354262e-04
1.0928533e-03
1.2244700e-03
1.2949959e-03
1.2947912e-03
1.2189169e-03
1.0677035e-03
8.4687751e-04
5.6721644e-04
2.4375749e-04
-1.0535006e-04
-4.6021192e-04
-8.0062087e-04
-1.1074122e-03
-1.3636285e-03
-1.5554118e-03
-1.6725755e-03
-1.7088504e-03
-1.6618384e-03
-1.5327403e-03
-1.3259368e-03
-1.0484984e-03
-7.0968763e-04
-3.2050012e-04
1.0672160e-04
5.5859061e-04
1.0209030e-03
1.4788206e-03
1.9170514e-03
2.3201606e-03
2.6732314e-03
2.9628878e-03
3.1784048e-03
3.3126475e-03
3.3626654e-03
3.3297982e-03
3.2192115e-03
3.0388806e-03
2.7981535e-03
2.5061142e-03
2.1700304e-03
1.7941768e-03
1.3792840e-03
9.2276968e-04
4.1978875e-04
-1.3498879e-04
-7.4508565e-04
-1.4097278e-03
-2.1215468e-03
-2.8648819e-03
-3.6150425e-03
-4.3387827e-03
-4.9960801e-03
-5.5431315e-03
-5.9362957e-03
-6.1365514e-03
-6.1139232e-03
-5.8512888e-03
-5.3470431e-03
-4.6162531e-03
-3.6901604e-03
-2.6141072e-03
-1.4441375e-03
-2.4263648e-04
9.2655477e-04
2.0030816e-03
2.9346056e-03
3.6804959e-03
4.2144382e-03
4.5258127e-03
4.6195033e-03
4.5140454e-03
4.2385719e-03
3.8291205e-03
3.3247737e-03
2.7640795e-03
2.1821109e-03
1.6084037e-03
1.0658567e-03
5.7054031e-04
1.3225037e-04
-2.4441335e-04
-5.5868832e-04
-8.1224247e-04
-1.0079193e-03
-1.1487803e-03
-1.2375235e-03
-1.2762966e-03
-1.2668676e-03
-1.2110763e-03
-1.1114584e-03
-9.7191682e-04
-7.9831084e-04
-5.9884670e-04
-3.8417487e-04
-1.6713395e-04
3.7879857e-05
2.1589471e-04
3.5262484e-04
4.3589335e-04
4.5706118e-04
4.1228731e-04
3.0344425e-04
1.3852932e-04
-6.8549446e-05
-2.9887127e-04
-5.3005849e-04
-7.3836824e-04
-9.0112158e-04
-9.9911514e-04
-1.0185578e-03
-9.5230946e-04
-8.0042958e-04
-5.7005510e-04
-2.7466044e-04
6.7190853e-05
4.3345945e-04
8.0045005e-04
1.1446733e-03
1.4445866e-03
1.6820640e-03
1.8434763e-03
1.9203118e-03
1.9093277e-03
1.8122761e-03
1.6352899e-03
1.3880455e-03
1.0828312e-03
7.3364284e-04
3.5540333e-04
-3.6646231e-05
-4.2738212e-04
-8.0210210e-04
-1.1467646e-03
-1.4482350e-03
-1.6945959e-03
-1.8755490e-03
-1.9828990e-03
-2.0110806e-03
-1.9576688e-03
-1.8238001e-03
-1.6144373e-03
-1.3384180e-03
-1.0082422e-03
-6.3958196e-04
-2.5053123e-04
1.3935040e-04
5.1012249e-04
8.4259276e-04
1.1194359e-03
1.3262573e-03
1.4524851e-03
1.4919747e-03
1.4433104e-03
1.3098237e-03
1.0993414e-03
8.2368447e-04
4.9794458e-04
1.3957885e-04
-2.3261934e-04
-5.9960174e-04
-9.4312156e-04
-1.2466915e-03
-1.4963810e-03
-1.6814059e-03
-1.7944818e-03
-1.8319404e-03
-1.7936271e-03
-1.6826175e-03
-1.5047937e-03
-1.2683320e-03
-9.8314860e-04
-6.6035347e-04
-3.1174636e-04
5.0621976e-05
4.1481568e-04
7.6930797e-04
1.1032133e-03
1.4064753e-03
1.6700352e-03
1.8860018e-03
2.0478388e-03
2.1505669e-03
2.1909675e-03
2.1677643e-03
2.0817664e-03
1.9359574e-03
1.7355187e-03
1.4877746e-03
1.2020665e-03
8.8955638e-04
5.6289801e-04
2.3574723e-04
-7.7845708e-05
-3.6412805e-04
-6.1041388e-04
-8.0592035e-04
-9.4263862e-04
-1.0161718e-03
-1.0264363e-03
-9.7810241e-04
-8.8065589e-04
-7.4799682e-04
-5.9754094e-04
-4.4884961e-04
-3.2187447e-04
-2.3496127e-04
-2.0280773e-04
-2.3460495e-04
-3.3260120e-04
-4.9130167e-04
-6.9745537e-04
-9.3088720e-04
-1.1661286e-03
-1.3747022e-03
-1.5278405e-03
-1.5993739e-03
-1.5685072e-03
-1.4222133e-03
-1.1570004e-03
-7.7985381e-04
-3.0822404e-04
2.3097521e-04
8.0328943e-04
1.3693959e-03
1.8882768e-03
2.3205908e-03
2.6319162e-03
2.7955590e-03
2.7947959e-03
2.6245500e-03
2.2922805e-03
1.8177860e-03
1.2318540e-03
5.7389605e-04
-1.1119468e-04
-7.7667450e-04
-1.3777397e-03
-1.8751253e-03
-2.2381712e-03
-2.4470647e-03
-2.4940641e-03
-2.3836220e-03
-2.1314467e-03
-1.7626437e-03
-1.3091535e-03
-8.0676679e-04
-2.9202574e-04
2.0067921e-04
6.4155302e-04
1.0071910e-03
1.2816272e-03
1.4566292e-03
1.5313117e-03
1.5112052e-03
1.4069532e-03
1.2328251e-03
1.0052215e-03
7.4131653e-04
4.5794101e-04
1.7076227e-04
-1.0623084e-04
-3.6097684e-04
-5.8340109e-04
-7.6538360e-04
-9.0072991e-04
-9.8521648e-04
-1.0167439e-03
-9.9561463e-04
-9.2482160e-04
-8.1008988e-04
-6.5961456e-04
-4.8363325e-04
-2.9390264e-04
-1.0307628e-04
7.6021533e-05
2.3121786e-04
3.5188083e-04
4.2982358e-04
4.6014752e-04
4.4193528e-04
3.7869854e-04
2.7849172e-04
1.5362369e-04
1.9937352e-05
-1.0432382e-04
-1.9999544e-04
-2.4871328e-04
-2.3474512e-04
-1.4678212e-04
2.0478316e-05
2.6513520e-04
5.7743936e-04
9.3983303e-04
1.3277449e-03
1.7111343e-03
2.0566969e-03
2.3305658e-03
2.5012733e-03
2.5426948e-03
2.4366791e-03
2.1750921e-03
1.7610542e-03
1.2092318e-03
5.4513871e-04
-1.9649106e-04
-9.7410823e-04
-1.7423146e-03
-2.4551175e-03
-3.0693026e-03
-3.5478070e-03
-3.8626948e-03
-3.9972701e-03
-3.9471268e-03
-3.7200835e-03
-3.3350512e-03
-2.8199910e-03
-2.2092232e-03
-1.5404108e-03
-8.5155937e-04
-1.7833186e-04
4.4809247e-04
1.0024828e-03
1.4663116e-03
1.8278565e-03
2.0817736e-03
2.2282997e-03
2.2722440e-03
2.2219120e-03
2.0880753e-03
1.8830706e-03
1.6200731e-03
1.3125597e-03
9.7394841e-04
6.1738749e-04
2.5565575e-04
-9.8868433e-05
-4.3422590e-04
-7.3894559e-04
-1.0022207e-03
-1.2142253e-03
-1.3665709e-03
-1.4528623e-03
-1.4692816e-03
-1.4151082e-03
-1.2930738e-03
-1.1094617e-03
-8.7388101e-04
-5.9871381e-04
-2.9829013e-04
1.2142007e-05
3.1754118e-04
6.0414997e-04
8.6041869e-04
1.0776885e-03
1.2505592e-03
1.3769003e-03
1.4575106e-03
1.4954810e-03
1.4953683e-03
1.4623160e-03
1.4012609e-03
1.3163335e-03
1.2105190e-03
1.0855891e-03
9.4228285e-04
7.8068864e-04
6.0076939e-04
4.0296495e-04
1.8879496e-04
-3.8620073e-05
-2.7420104e-04
-5.1078684e-04
-7.3929402e-04
-9.4917503e-04
-1.1291501e-03
-1.2681473e-03
-1.3563492e-03
-1.3862280e-03
-1.3534489e-03
-1.2575418e-03
-1.1022682e-03
-8.9563703e-04
-6.4955319e-04
-3.7911212e-04
-1.0158423e-04
1.6483564e-04
4.0241489e-04
5.9529509e-04
7.3079108e-04
8.0039489e-04
8.0035917e-04
7.3186149e-04
6.0080187e-04
4.1728371e-04
1.9483508e-04
-5.0566593e-05
-3.0159905e-04
-5.4075818e-04
-7.5150547e-04
-9.1932711e-04
-1.0326388e-03
-1.0834836e-03
-1.0679854e-03
-9.8654039e-04
-8.4373804e-04
-6.4802318e-04
-4.1111898e-04
-1.4724870e-04
1.2779106e-04
3.9764198e-04
6.4641266e-04
8.5966058e-04
1.0252712e-03
1.1341848e-03
1.1809259e-03
1.1638994e-03
1.0854256e-03
9.5150824e-04
7.7135372e-04
5.5668336e-04
3.2089844e-04
7.8166603e-05
-1.5750123e-04
-3.7311724e-04
-5.5746668e-04
-7.0169296e-04
-7.9968548e-04
-8.4826607e-04
-8.4724037e-04
-7.9934139e-04
-7.0995860e-04
-5.8661779e-04
-4.3830758e-04
-2.7474730e-04
-1.0567244e-04
5.9796000e-05
2.1364748e-04
3.4931514e-04
4.6184314e-04
5.4790671e-04
6.0571538e-04
6.3483283e-04
6.3594708e-04
6.1062350e-04
5.6106987e-04
4.8993647e-04
4.0016619e-04
2.9490219e-04
1.7745175e-04
5.1295211e-05
-7.9882044e-05
-2.1216357e-04
-3.4141061e-04
-4.6332472e-04
-5.7356758e-04
-6.6792681e-04
-7.4250686e-04
-7.9392164e-04
-8.1946791e-04
-8.1726395e-04
-7.8634254e-04
-7.2669214e-04
-6.3924597e-04
-5.2582719e-04
-3.8906749e-04
-2.3232048e-04
-5.9584925e-05
1.2456096e-04
3.1498891e-04
5.0595424e-04
6.9097067e-04
8.6277217e-04
1.0134536e-03
1.1348028e-03
1.2188093e-03
1.2583137e-03
1.2477334e-03
1.1837840e-03
1.0661067e-03
8.9771222e-04
6.8516342e-04
4.3843793e-04
1.7044127e-04
-1.0381688e-04
-3.6832320e-04
-6.0733153e-04
-8.0666346e-04
-9.5488688e-04
-1.0442325e-03
-1.0711427e-03
-1.0364013e-03
-9.4485226e-04
-8.0477027e-04
-6.2698223e-04
-4.2385544e-04
-2.0826955e-04
7.3226652e-06
2.1166421e-04
3.9524080e-04
5.5058768e-04
6.7237023e-04
7.5728052e-04
8.0381087e-04
8.1197196e-04
7.8301591e-04
7.1920684e-04
6.2365898e-04
5.0025812e-04
3.5361026e-04
1.8887920e-04
1.1520559e-05
-1.7295251e-04
-3.5912769e-04
-5.4178691e-04
-7.1593416e-04
-8.7676354e-04
-1.0195865e-03
-1.1397515e-03
-1.2325959e-03
-1.2934696e-03
-1.3178525e-03
-1.3015736e-03
-1.2411215e-03
-1.1340173e-03
-9.7921477e-04
-7.7748034e-04
-5.3170892e-04
-2.4713586e-04
6.8586310e-05
4.0547028e-04
7.5145302e-04
1.0928404e-03
1.4149301e-03
1.7027842e-03
1.9420975e-03
2.1200883e-03
2.2263259e-03
2.2534121e-03
2.1974552e-03
2.0583055e-03
1.8395619e-03
1.5483816e-03
1.1951378e-03
7.9296593e-04
3.5721923e-04
-9.5166099e-05
-5.4640811e-04
-9.7874203e-04
-1.3754325e-03
-1.7217702e-03
-2.0057897e-03
-2.2187233e-03
-2.3553078e-03
-2.4139338e-03
-2.3965951e-03
-2.3086050e-03
-2.1580663e-03
-1.9551164e-03
-1.7110232e-03
-1.4372430e-03
-1.1445676e-03
-8.4247331e-04
-5.3874208e-04
-2.3937830e-04
5.1211505e-05
3.2984686e-04
5.9410303e-04
8.4183510e-04
1.0707734e-03
1.2782427e-03
1.4610325e-03
1.6154242e-03
1.7373600e-03
1.8227280e-03
1.8677214e-03
1.8692324e-03
1.8252329e-03
1.7350985e-03
1.5998396e-03
1.4222170e-03
1.2067422e-03
9.5957480e-04
6.8833632e-04
4.0185823e-04
1.0987060e-04
-1.7737053e-04
-4.4952273e-04
-6.9667293e-04
-9.0996163e-04
-1.0822221e-03
-1.2084213e-03
-1.2858710e-03
-1.3142938e-03
-1.2957580e-03
-1.2344767e-03
-1.1364782e-03
-1.0091693e-03
-8.6082541e-04
-7.0004940e-04
-5.3524194e-04
-3.7412391e-04
-2.2334116e-04
-8.8171503e-05
2.7658674e-05
1.2205154e-04
1.9451882e-04
2.4607702e-04
2.7906355e-04
2.9687686e-04
3.0364574e-04
3.0384137e-04
3.0185746e-04
3.0159094e-04
3.0605792e-04
3.1707812e-04
3.3506004e-04
3.5891601e-04
3.8612578e-04
4.1295101e-04
4.3478395e-04
4.4659693e-04
4.4344774e-04
4.2099007e-04
3.7593692e-04
3.0642982e-04
2.1227769e-04
9.5043588e-05
-4.2028002e-05
-1.9422206e-04
-3.5560478e-04
-5.1924340e-04
-6.7745047e-04
-8.2209853e-04
-9.4499308e-04
-1.0382912e-03
-1.0949478e-03
-1.1091634e-03
-1.0768060e-03
-9.9577627e-04
-8.6629329e-04
-6.9107444e-04
-4.7538250e-04
-2.2691404e-04
4.4483993e-05
3.2726535e-04
6.0878295e-04
8.7600220e-04
1.1162869e-03
1.3182050e-03
1.4722947e-03
1.5717251e-03
1.6127887e-03
1.5951673e-03
1.5219257e-03
1.3992090e-03
1.2356519e-03
1.0415525e-03
8.2789927e-04
6.0537696e-04
3.8348574e-04
1.6989520e-04
-2.9888766e-05
-2.1252408e-04
-3.7653565e-04
-5.2180101e-04
-6.4892571e-04
-7.5862910e-04
-8.5127966e-04
-9.2664674e-04
-9.8372851e-04
-1.0205893e-03
-1.0344115e-03
-1.0218961e-03
-9.7995275e-04
-9.0656040e-04
-8.0165023e-04
-6.6785571e-04
-5.1099061e-04
-3.4015250e-04
-1.6740025e-04
-7.0107777e-06
1.2562798e-04
2.1539015e-04
2.4892249e-04
2.1614092e-04
1.1155246e-04
-6.4742287e-05
-3.0647389e-04
-6.0111932e-04
-9.3033127e-04
-1.2708700e-03
-1.5959883e-03
-1.8771839e-03
-2.0862008e-03
-2.1971482e-03
-2.1885953e-03
-2.0454940e-03
-1.7607791e-03
-1.3364933e-03
-7.8431062e-04
-1.2536499e-04
6.1065770e-04
1.3871435e-03
2.1628039e-03
2.8944041e-03
3.5397587e-03
4.0607440e-03
4.4260751e-03
4.6136377e-03
4.6122039e-03
4.4223311e-03
4.0562819e-03
3.5369571e-03
2.8959713e-03
2.1710853e-03
1.4032475e-03
6.3351895e-04
-9.9859652e-05
-7.6403026e-04
-1.3335290e-03
-1.7916204e-03
-2.1308811e-03
-2.3530119e-03
-2.4679126e-03
-2.4921107e-03
-2.4466891e-03
-2.3549047e-03
-2.2397213e-03
-2.1214903e-03
-2.0160002e-03
-1.9330879e-03
-1.8759521e-03
-1.8412422e-03
-1.8199034e-03
-1.7986631e-03
-1.7619618e-03
-1.6940822e-03
-1.5812228e-03
-1.4132816e-03
-1.1851589e-03
-8.9745841e-04
-5.5654201e-04
-1.7397845e-04
2.3450851e-04
6.5043469e-04
1.0541068e-03
1.4261430e-03
1.7488276e-03
2.0073020e-03
2.1905546e-03
2.2919918e-03
2.3095127e-03
2.2452151e-03
2.1048694e-03
1.8972668e-03
1.6335295e-03
1.3264387e-03
9.8980093e-04
6.3785818e-04
2.8473628e-04
-5.6072711e-05
-3.7219159e-04
-6.5279290e-04
-8.8897053e-04
-1.0740266e-03
-1.2036527e-03
-1.2759874e-03
-1.2915447e-03
-1.2530147e-03
-1.1649553e-03
-1.0334033e-03
-8.6544763e-04
-6.6880394e-04
-4.5143315e-04
-2.2123117e-04
1.4190905e-05
2.4763448e-04
4.7236591e-04
6.8212566e-04
8.7113081e-04
1.0340994e-03
1.1663115e-03
1.2637104e-03
1.3230406e-03
1.3420171e-03
1.3195107e-03
1.2557240e-03
1.1523098e-03
1.0124383e-03
8.4085456e-04
6.4385991e-04
4.2911963e-04
2.0528711e-04
-1.8513691e-05
-2.3328571e-04
-4.3076454e-04
-6.0396438e-04
-7.4760896e-04
-8.5840962e-04
-9.3517418e-04
-9.7875159e-04
-9.9183239e-04
-9.7863287e-04
-9.4449289e-04
-8.9541866e-04
-8.3760276e-04
-7.7695394e-04
-7.1866838e-04
-6.6687091e-04
-6.2435022e-04
-5.9240620e-04
-5.7081933e-04
-5.5794227e-04
-5.5090397e-04
-5.4590550e-04
-5.3857695e-04
-5.2435785e-04
-4.9886320e-04
-4.5820296e-04
-3.9923401e-04
-3.1974011e-04
-2.1855177e-04
-9.5627237e-05
4.7885461e-05
2.0959663e-04
3.8583900e-04
5.7166704e-04
7.6093661e-04
9.4653027e-04
1.1206521e-03
1.2750505e-03
1.4012527e-03
1.4909516e-03
1.5365521e-03
1.5318269e-03
1.4726011e-03
1.3573724e-03
1.1877661e-03
9.6873992e-04
7.0848264e-04
4.1799656e-04
1.1040208e-04
-1.9996234e-04
-4.9855118e-04
-7.7163535e-04
-1.0072431e-03
-1.1959344e-03
-1.3313413e-03
-1.4104349e-03
-1.4335129e-03
-1.4039368e-03
-1.3276779e-03
-1.2127426e-03
-1.0685501e-03
-9.0531520e-04
-7.3347531e-04
-5.6317294e-04
-4.0379872e-04
-2.6358940e-04
-1.4927282e-04
-6.5748569e-05
-1.5795494e-05
1.9394382e-07
-1.5564846e-05
-5.8108367e-05
-1.1971913e-04
-1.9011063e-04
-2.5683870e-04
-3.0598052e-04
-3.2316363e-04
-2.9492705e-04
-2.1022855e-04
-6.1902063e-05
1.5209186e-04
4.2778245e-04
7.5481835e-04
1.1167172e-03
1.4917775e-03
1.8546171e-03
2.1782229e-03
2.4363254e-03
2.6058523e-03
2.6691884e-03
2.6159656e-03
2.4441594e-03
2.1603405e-03
1.7790426e-03
1.3213204e-03
8.1267839e-04
2.8063219e-04
-2.4779679e-04
-7.4835552e-04
-1.2013491e-03
-1.5927699e-03
-1.9146832e-03
-2.1648887e-03
-2.3459696e-03
-2.4639154e-03
-2.5265431e-03
-2.5419429e-03
-2.5171429e-03
-2.4571370e-03
-2.3643627e-03
-2.2386623e-03
-2.0777058e-03
-1.8778113e-03
-1.6350613e-03
-1.3465886e-03
-1.0117922e-03
-6.3317403e-04
-2.1670867e-04
2.2812672e-04
6.8855939e-04
1.1489602e-03
1.5915298e-03
1.9972208e-03
2.3468563e-03
2.6223782e-03
2.8081349e-03
2.8921033e-03
2.8669324e-03
2.7307033e-03
2.4873231e-03
2.1465026e-03
1.7233061e-03
1.2373057e-03
7.1140656e-04
1.7043790e-04
-3.6037355e-04
-8.5692448e-04
-1.2976298e-03
-1.6645912e-03
-1.9444696e-03
-2.1290219e-03
-2.2152943e-03
-2.2054849e-03
-2.1065088e-03
-1.9293174e-03
-1.6880367e-03
-1.3990000e-03
-1.0797459e-03
-7.4804329e-04
-4.2099039e-04
-1.1421491e-04
1.5881006e-04
3.8733435e-04
5.6378731e-04
6.8413351e-04
7.4809603e-04
7.5909277e-04
7.2378081e-04
6.5133128e-04
5.5259995e-04
4.3927707e-04
3.2306864e-04
2.1494755e-04
1.2450291e-04
5.9409640e-05
2.5037523e-05
2.4216410e-05
5.7170139e-05
1.2162197e-04
2.1305930e-04
3.2512902e-04
4.5012326e-04
5.7951009e-04
7.0446560e-04
8.1636973e-04
9.0723937e-04
9.7008734e-04
9.9921304e-04
9.9044330e-04
9.4134516e-04
8.5142224e-04
7.2228577e-04
5.5777037e-04
3.6395323e-04
1.4903660e-04
-7.6936632e-05
-3.0255209e-04
-5.1567959e-04
-7.0429375e-04
-8.5740643e-04
-9.6602524e-04
-1.0240288e-03
-1.0288428e-03
-9.8181714e-04
-8.8825657e-04
-7.5709047e-04
-6.0017394e-04
-4.3128428e-04
-2.6493193e-04
-1.1510044e-04
5.9635397e-06
8.8787205e-05
1.2743099e-04
1.1989900e-04
6.8169570e-05
-2.2144009e-05
-1.4245298e-04
-2.8208832e-04
-4.2932100e-04
-5.7238825e-04
-7.0041876e-04
-8.0417822e-04
-8.7658850e-04
-9.1299999e-04
-9.1121689e-04
-8.7129665e-04
-7.9516840e-04
-6.8613834e-04
-5.4836506e-04
-3.8639056e-04
-2.0480122e-04
-8.0647257e-06
1.9944943e-04
4.1330038e-04
6.2872530e-04
8.4039356e-04
1.0422471e-03
1.2274868e-03
1.3887332e-03
1.5183695e-03
1.6090502e-03
1.6543415e-03
1.6494272e-03
1.5917891e-03
1.4817616e-03
1.3228315e-03
1.1215411e-03
8.8698776e-04
6.3004523e-04
3.6243520e-04
9.5757452e-05
-1.5941221e-04
-3.9425545e-04
-6.0220030e-04
-7.7912640e-04
-9.2328701e-04
-1.0349846e-03
-1.1160661e-03
-1.1693194e-03
-1.1978586e-03
-1.2045671e-03
-1.1916567e-03
-1.1603796e-03
-1.1109218e-03
-1.0424900e-03
-9.5357984e-04
-8.4239675e-04
-7.0737954e-04
-5.4777500e-04
-3.6419640e-04
-1.5908739e-04
6.2991853e-05
2.9532312e-04
5.2926674e-04
7.5476607e-04
9.6106616e-04
1.1375598e-03
1.2746587e-03
1.3645904e-03
1.4020372e-03
1.3845575e-03
1.3127563e-03
1.1902023e-03
1.0231140e-03
8.1986397e-04
5.9034244e-04
3.4524545e-04
9.5434222e-05
-1.4857543e-04
-3.7703391e-04
-5.8129978e-04
-7.5409575e-04
-8.8968160e-04
-9.8395433e-04
-1.0344894e-03
-1.0405375e-03
-1.0029878e-03
-9.2430749e-04
-8.0846646e-04
-6.6085598e-04
-4.8820321e-04
-2.9847286e-04
-1.0073378e-04
9.5040773e-05
2.7827246e-04
4.3820140e-04
5.6443920e-04
6.4763309e-04
6.8020118e-04
6.5708156e-04
5.7642311e-04
4.4013337e-04
2.5419105e-04
2.8635645e-05
-2.2283124e-04
-4.8365654e-04
-7.3562696e-04
-9.6035056e-04
-1.1408852e-03
-1.2633295e-03
-1.3181737e-03
-1.3012217e-03
-1.2139453e-03
-1.0632162e-03
-8.6045763e-04
-6.2039077e-04
-3.5949666e-04
-9.4229222e-05
1.6072000e-04
3.9370865e-04
5.9680523e-04
7.6581448e-04
8.9975729e-04
9.9996840e-04
1.0690162e-03
1.1096581e-03
1.1240203e-03
1.1131409e-03
1.0769360e-03
1.0145713e-03
9.2513908e-04
8.0848605e-04
6.6601299e-04
5.0127550e-04
3.2026101e-04
1.3128095e-04
-5.5516718e-05
-2.2895583e-04
-3.7786463e-04
-4.9220981e-04
-5.6419171e-04
-5.8915704e-04
-5.6620337e-04
-4.9838907e-04
-3.9251787e-04
-2.5852736e-04
-1.0856275e-04
4.4146829e-05
1.8647555e-04
3.0651925e-04
3.9452998e-04
4.4358552e-04
4.4995548e-04
4.1316516e-04
3.3578457e-04
2.2297934e-04
8.1915875e-05
-7.8852637e-05
-2.4997070e-04
-4.2183105e-04
-5.8507830e-04
-7.3106272e-04
-8.5224069e-04
-9.4251241e-04
-9.9748342e-04
-1.0146371e-03
-9.9340696e-04
-9.3513962e-04
-8.4294339e-04
-7.2142376e-04
-5.7631766e-04
-4.1405132e-04
-2.4126173e-04
-6.4335189e-05
1.1098147e-04
2.7985409e-04
4.3850015e-04
5.8419890e-04
7.1519264e-04
8.3050193e-04
9.2967748e-04
1.0125134e-03
1.0787548e-03
1.1278391e-03
1.1587140e-03
1.1697684e-03
1.1589028e-03
1.1237522e-03
1.0620497e-03
9.7209067e-04
8.5322945e-04
7.0632645e-04
5.3406448e-04
3.4107036e-04
1.3378892e-04
-7.9919158e-05
-2.9132648e-04
-4.9134749e-04
-6.7103484e-04
-8.2216131e-04
-9.3786681e-04
-1.0132987e-03
-1.0461664e-03
-1.0371310e-03
-9.8995517e-04
-9.1135080e-04
-8.1049416e-04
-6.9822175e-04
-5.8597469e-04
-4.8460493e-04
-4.0318744e-04
-3.4799262e-04
-3.2175985e-04
-3.2337610e-04
-3.4800717e-04
-3.8766413e-04
-4.3213090e-04
-4.7013940e-04
-4.9065632e-04
-4.8413529e-04
-4.4359252e-04
-3.6538761e-04
-2.4963322e-04
-1.0020740e-04
7.5609241e-05
2.6781228e-04
4.6458414e-04
6.5333948e-04
8.2180422e-04
9.5903195e-04
1.0562743e-03
1.1076392e-03
1.1104911e-03
1.0655721e-03
9.7685757e-04
8.5117425e-04
6.9758372e-04
5.2657155e-04
3.4913300e-04
1.7584515e-04
1.6009853e-05
-1.2304530e-04
-2.3643470e-04
-3.2190583e-04
-3.7974457e-04
-4.1242324e-04
-4.2405224e-04
-4.1971563e-04
-4.0477562e-04
-3.8422212e-04
-3.6212720e-04
-3.4124572e-04
-3.2278934e-04
-3.0638907e-04
-2.9024781e-04
-2.7146525e-04
-2.4649808e-04
-2.1170354e-04
-1.6390379e-04
-1.0090532e-04
-2.1914027e-05
7.2198466e-05
1.7880181e-04
2.9359295e-04
4.1085064e-04
5.2383389e-04
6.2528786e-04
7.0801308e-04
7.6544923e-04
7.9222424e-04
7.8461999e-04
7.4091035e-04
6.6153419e-04
5.4907666e-04
4.0804711e-04
2.4450245e-04
6.5659709e-05
-1.2042341e-04
-3.0518978e-04
-4.8001905e-04
-6.3673183e-04
-7.6810617e-04
-8.6835057e-04
-9.3348512e-04
-9.6159293e-04
-9.5291418e-04
-9.0976878e-04
-8.3631426e-04
-7.3817120e-04
-6.2196552e-04
-4.9483845e-04
-3.6396525e-04
-2.3611362e-04
-1.1726595e-04
-1.2320598e-05
7.5122055e-05
1.4288826e-04
1.9027384e-04
2.1800302e-04
2.2811225e-04
2.2377377e-04
2.0907044e-04
1.8872313e-04
1.6776613e-04
1.5117131e-04
1.4343859e-04
1.4818657e-04
1.6778697e-04
2.0308577e-04
2.5324716e-04
3.1574511e-04
3.8651300e-04
4.6024404e-04
5.3081753e-04
5.9181583e-04
6.3709041e-04
6.6131472e-04
6.6045429e-04
6.3211022e-04
5.7571161e-04
4.9255371e-04
3.8570084e-04
2.5978113e-04
1.2070033e-04
-2.4703908e-05
-1.6905383e-04
-3.0486007e-04
-4.2497404e-04
-5.2304451e-04
-5.9395095e-04
-6.3418146e-04
-6.4212181e-04
-6.1822550e-04
-5.6504373e-04
-4.8710712e-04
-3.9066485e-04
-2.8329739e-04
-1.7342445e-04
-6.9733804e-05
1.9438720e-05
8.6741860e-05
1.2641247e-04
1.3480378e-04
1.1078821e-04
5.5982394e-05
-2.5253728e-05
-1.2607370e-04
-2.3765638e-04
-3.4993605e-04
-4.5248260e-04
-5.3544015e-04
-5.9041823e-04
-6.1122802e-04
-5.9437147e-04
-5.3922010e-04
-4.4788490e-04
-3.2489031e-04
-1.7676852e-04
-1.1571295e-05
1.6171245e-04
3.3378089e-04
4.9562019e-04
6.3902804e-04
7.5702000e-04
8.4409670e-04
8.9637052e-04
9.1157339e-04
8.8898476e-04
8.2932385e-04
7.3464184e-04
6.0823295e-04
4.5456670e-04
2.7922841e-04
8.8842828e-05
-1.0904823e-04
-3.0617746e-04
-4.9382287e-04
-6.6315512e-04
-8.0564956e-04
-9.1354494e-04
-9.8032300e-04
-1.0011739e-03
-9.7340386e-04
-8.9674146e-04
-7.7350162e-04
-6.0857573e-04
-4.0922696e-04
-1.8468966e-04
5.4401229e-05
2.9669581e-04
5.3085525e-04
7.4623935e-04
9.3348915e-04
1.0849622e-03
1.1950037e-03
1.2600674e-03
1.2786913e-03
1.2513251e-03
1.1800678e-03
1.0684116e-03
9.2103401e-04
7.4364251e-04
5.4284846e-04
3.2602773e-04
1.0112644e-04
-1.2361816e-04
-3.4004578e-04
-5.4050241e-04
-7.1827520e-04
-8.6796342e-04
-9.8572147e-04
-1.0693294e-03
-1.1180758e-03
-1.1324779e-03
-1.1139041e-03
-1.0641961e-03
-9.8538771e-04
-8.7959912e-04
-7.4913808e-04
-5.9678225e-04
-4.2616234e-04
-2.4213096e-04
-5.1000693e-05
1.3943810e-04
3.2016574e-04
4.8144407e-04
6.1354196e-04
7.0759733e-04
7.5652109e-04
7.5584033e-04
7.0437714e-04
6.0466714e-04
4.6303862e-04
2.8929889e-04
9.6024739e-05
-1.0243346e-04
-2.9103714e-04
-4.5513994e-04
-5.8158482e-04
-6.5977668e-04
-6.8261815e-04
-6.4720472e-04
-5.5519685e-04
-4.1281119e-04
-2.3040430e-04
-2.1663563e-05
1.9753177e-04
4.1047220e-04
6.0106496e-04
7.5521859e-04
8.6202870e-04
9.1465626e-04
9.1082719e-04
8.5291894e-04
7.4763447e-04
6.0529842e-04
4.3884321e-04
2.6258099e-04
9.0876638e-05
-6.3153735e-05
-1.8879633e-04
-2.7863772e-04
-3.2912757e-04
-3.4076187e-04
-3.1788085e-04
-2.6811242e-04
-2.0152209e-04
-1.2955134e-04
-6.3840655e-05
-1.5043064e-05
8.2612950e-06
4.4387892e-07
-4.0589926e-05
-1.1317688e-04
-2.1205756e-04
-3.2887984e-04
-4.5295210e-04
-5.7219523e-04
-6.7423630e-04
-7.4752538e-04
-7.8236017e-04
-7.7173522e-04
-7.1195540e-04
-6.0297772e-04
-4.4846982e-04
-2.5559457e-04
-3.4543723e-05
2.0214709e-04
4.4045994e-04
6.6587710e-04
8.6441304e-04
1.0236115e-03
1.1334211e-03
1.1868732e-03
1.1805130e-03
1.1145573e-03
9.9278905e-04
8.2221702e-04
6.1254881e-04
3.7552538e-04
1.2416317e-04
-1.2805417e-04
-3.6798973e-04
-5.8362287e-04
-7.6472332e-04
-9.0338586e-04
-9.9439364e-04
-1.0353913e-03
-1.0268603e-03
-9.7190028e-04
-8.7583824e-04
-7.4570231e-04
-5.8961422e-04
-4.1615732e-04
-2.3377905e-04
-5.0283811e-05
1.2750540e-04
2.9386485e-04
4.4413261e-04
5.7461051e-04
6.8245298e-04
7.6557115e-04
8.2256583e-04
8.5268661e-04
8.5580102e-04
8.3235262e-04
7.8329124e-04
7.0997056e-04
6.1402525e-04
4.9725588e-04
3.6155703e-04
2.0891803e-04
4.1509700e-05
-1.3814907e-04
-3.2697159e-04
-5.2107372e-04
-7.1558794e-04
-9.0457287e-04
-1.0810571e-03
-1.2372360e-03
-1.3648184e-03
-1.4554995e-03
-1.5015222e-03
-1.4962789e-03
-1.4348984e-03
-1.3147664e-03
-1.1359359e-03
-9.0139598e-04
-6.1717572e-04
-2.9226723e-04
6.1638996e-05
4.3060226e-04
7.9904699e-04
1.1505201e-03
1.4685659e-03
1.7376539e-03
1.9440467e-03
2.0765575e-03
2.1272004e-03
2.0916978e-03
1.9697978e-03
1.7653779e-03
1.4863236e-03
1.1441841e-03
7.5362058e-04
3.3168071e-04
-1.0305571e-04
-5.3141510e-04
-9.3460902e-04
-1.2952105e-03
-1.5980746e-03
-1.8311410e-03
-1.9860545e-03
-2.0585536e-03
-2.0485917e-03
-1.9601737e-03
-1.8009198e-03
-1.5813915e-03
-1.3142486e-03
-1.0133227e-03
-6.9269790e-04
-3.6588808e-04
-4.5182204e-05
2.5879813e-04
5.3732311e-04
7.8359543e-04
9.9266845e-04
1.1613078e-03
1.2878510e-03
1.3720992e-03
1.4152483e-03
1.4198450e-03
1.3897249e-03
1.3298847e-03
1.2462612e-03
1.1453782e-03
1.0338004e-03
9.1747601e-04
8.0115860e-04
6.8801360e-04
5.7944912e-04
4.7519281e-04
3.7359838e-04
2.7213082e-04
1.6795771e-04
5.8565461e-05
-5.7679065e-05
-1.8109425e-04
-3.1043476e-04
-4.4286142e-04
-5.7413303e-04
-6.9899613e-04
-8.1172732e-04
-9.0676555e-04
-9.7935582e-04
-1.0261151e-03
-1.0454348e-03
-1.0376556e-03
-1.0049867e-03
-9.5118025e-04
-8.8100849e-04
-7.9962081e-04
-7.1187456e-04
-6.2173898e-04
-5.3185709e-04
-4.4332483e-04
-3.5571717e-04
-2.6736217e-04
-1.7583336e-04
-7.8599099e-05
2.6261698e-05
1.3938705e-04
2.5961569e-04
3.8372491e-04
5.0651263e-04
6.2121019e-04
7.2002598e-04
7.9469792e-04
8.3714457e-04
8.4026739e-04
7.9882153e-04
7.1022784e-04
5.7520255e-04
3.9810329e-04
1.8692655e-04
-4.7060365e-05
-2.9001895e-04
-5.2649543e-04
-7.4053546e-04
-9.1685643e-04
-1.0419840e-03
-1.1052720e-03
-1.0997392e-03
-1.0226694e-03
-8.7593664e-04
-6.6602879e-04
-4.0376081e-04
-1.0368459e-04
2.1677756e-04
5.3843063e-04
8.4157375e-04
1.1073594e-03
1.3191559e-03
1.4638131e-03
1.5327218e-03
1.5225610e-03
1.4356446e-03
1.2798154e-03
1.0678782e-03
8.1660591e-04
5.4540331e-04
2.7474371e-04
2.4522159e-05
-1.8752230e-04
-3.4716369e-04
-4.4478242e-04
-4.7623771e-04
-4.4337765e-04
-3.5395844e-04
-2.2094530e-04
-6.1303532e-05
1.0558144e-04
2.5968825e-04
3.8216747e-04
4.5699893e-04
4.7234976e-04
4.2152206e-04
3.0342034e-04
1.2251125e-04
-1.1170423e-04
-3.8563406e-04
-6.8283467e-04
-9.8540185e-04
-1.2753695e-03
-1.5359930e-03
-1.7528241e-03
-1.9145153e-03
-2.0133244e-03
-2.0453128e-03
-2.0102479e-03
-1.9112405e-03
-1.7541698e-03
-1.5469713e-03
-1.2988681e-03
-1.0196247e-03
-7.1888901e-04
-4.0567889e-04
-8.8043455e-05
2.2709269e-04
5.3392102e-04
8.2761080e-04
1.1040814e-03
1.3597249e-03
1.5911167e-03
1.7947816e-03
1.9670702e-03
2.1040832e-03
2.2016141e-03
2.2551986e-03
2.2603248e-03
2.2127870e-03
2.1091597e-03
1.9473543e-03
1.7272114e-03
1.4510666e-03
1.1242130e-03
7.5517833e-04
3.5574247e-04
-5.9355806e-05
-4.7303795e-04
-8.6680954e-04
-1.2219343e-03
-1.5207748e-03
-1.7481873e-03
-1.8928337e-03
-1.9482559e-03
-1.9135706e-03
-1.7936780e-03
-1.5989382e-03
-1.3443337e-03
-1.0482016e-03
-7.3067802e-04
-4.1202929e-04
-1.1105221e-04
1.5629798e-04
3.7793365e-04
5.4624470e-04
6.5827163e-04
7.1546519e-04
7.2309117e-04
6.8936360e-04
6.2440505e-04
5.3913948e-04
4.4422183e-04
3.4912406e-04
2.6148628e-04
1.8673433e-04
1.2792199e-04
8.5810099e-05
5.9171359e-05
4.5259666e-05
4.0371849e-05
4.0425879e-05
4.1490609e-05
4.0221764e-05
3.4179275e-05
2.2016558e-05
3.5420098e-06
-2.0341272e-05
-4.7806536e-05
-7.6368125e-05
-1.0321528e-04
-1.2558191e-04
-1.4111154e-04
-1.4817288e-04
-1.4608575e-04
-1.3523034e-04
-1.1703063e-04
-9.3819852e-05
-6.8608019e-05
-4.4778492e-05
-2.5743143e-05
-1.4586298e-05
-1.3726978e-05
-2.4627165e-05
-4.7571541e-05
-8.1542835e-05
-1.2421452e-04
-1.7207455e-04
-2.2067869e-04
-2.6501274e-04
-2.9992547e-04
-3.2058077e-04
-3.2287539e-04
-3.0377558e-04
-2.6153815e-04
-1.9583973e-04
-1.0786653e-04
-3.3691362e-07
1.2259085e-04
2.5552079e-04
3.9210604e-04
5.2539176e-04
6.4818830e-04
7.5345649e-04
8.3469147e-04
8.8629014e-04
9.0388103e-04
8.8459393e-04
8.2725300e-04
7.3248539e-04
6.0274142e-04
4.4222319e-04
2.5672164e-04
5.3366390e-05
-1.5970471e-04
-3.7374712e-04
-5.7987029e-04
-7.6953936e-04
-9.3509273e-04
-1.0702404e-03
-1.1704996e-03
-1.2335179e-03
-1.2592331e-03
-1.2498259e-03
-1.2094427e-03
-1.1436996e-03
-1.0590212e-03
-9.6189681e-04
-8.5814518e-04
-7.5227612e-04
-6.4702377e-04
-5.4310909e-04
-4.3926026e-04
-3.3247300e-04
-2.1847628e-04
-9.2420970e-05
5.0234791e-05
2.1281523e-04
3.9667768e-04
6.0072620e-04
8.2123239e-04
1.0519602e-03
1.2845493e-03
1.5090831e-03
1.7147636e-03
1.8906299e-03
2.0262766e-03
2.1125374e-03
2.1420987e-03
2.1100021e-03
2.0139977e-03
1.8547172e-03
1.6356533e-03
1.3629575e-03
1.0450856e-03
6.9233011e-04
3.1627861e-04
-7.0762624e-05
-4.5633470e-04
-8.2833894e-04
-1.1754660e-03
-1.4875333e-03
-1.7557418e-03
-1.9728701e-03
-2.1334227e-03
-2.2337517e-03
-2.2721640e-03
-2.2490154e-03
-2.1667693e-03
-2.0299792e-03
-1.8451541e-03
-1.6204860e-03
-1.3654519e-03
-1.0903286e-03
-8.0556904e-04
-5.2098619e-04
-2.4495556e-04
1.6107182e-05
2.5793485e-04
4.7829185e-04
6.7661460e-04
8.5349843e-04
1.0101262e-03
1.1477251e-03
1.2671207e-03
1.3684292e-03
1.4509065e-03
1.5129516e-03
1.5522444e-03
1.5659950e-03
1.5512647e-03
1.5053158e-03
1.4259480e-03
1.3117943e-03
1.1625691e-03
9.7927425e-04
7.6435941e-04
5.2181974e-04
2.5720342e-04
-2.2496773e-05
-3.0908256e-04
-5.9351703e-04
-8.6639643e-04
-1.1184845e-03
-1.3412529e-03
-1.5273679e-03
-1.6710790e-03
-1.7684875e-03
-1.8176872e-03
-1.8187776e-03
-1.7737414e-03
-1.6861906e-03
-1.5609938e-03
-1.4038319e-03
-1.2207113e-03
-1.0174300e-03
-7.9907126e-04
-5.6964579e-04
-3.3195245e-04
-8.7674492e-05
1.6230364e-04
4.1740529e-04
6.7676522e-04
9.3861213e-04
1.1997188e-03
1.4549996e-03
1.6973174e-03
1.9175427e-03
2.1048906e-03
2.2475409e-03
2.3335193e-03
2.3517793e-03
2.2933812e-03
2.1526388e-03
1.9280881e-03
1.6231472e-03
1.2463652e-03
8.1120436e-04
3.3535642e-04
-1.6035162e-04
-6.5335498e-04
-1.1209123e-03
-1.5416762e-03
-1.8971250e-03
-2.1727290e-03
-2.3587589e-03
-2.4506835e-03
-2.4491492e-03
-2.3595768e-03
-2.1914468e-03
-1.9573735e-03
-1.6720787e-03
-1.3513677e-03
-1.0112242e-03
-6.6700716e-04
-3.3258559e-04
-1.9479537e-05
2.6373448e-04
5.1164143e-04
7.2184467e-04
8.9452127e-04
1.0317644e-03
1.1368180e-03
1.2133154e-03
1.2646250e-03
1.2933840e-03
1.3012596e-03
1.2889359e-03
1.2562880e-03
1.2026842e-03
1.1273541e-03
1.0297607e-03
9.0992880e-04
7.6869653e-04
6.0787337e-04
4.3029824e-04
2.3979796e-04
4.1049637e-05
-1.6064267e-04
-3.5963760e-04
-5.5028668e-04
-7.2727349e-04
-8.8592443e-04
-1.0224504e-03
-1.1340838e-03
-1.2190915e-03
-1.2766653e-03
-1.3067180e-03
-1.3096255e-03
-1.2859674e-03
-1.2363112e-03
-1.1610776e-03
-1.0605096e-03
-9.3475701e-04
-7.8404010e-04
-6.0887427e-04
-4.1042593e-04
-1.9095456e-04
4.5815403e-05
2.9448718e-04
5.4798773e-04
7.9778438e-04
1.0343161e-03
1.2476090e-03
1.4280189e-03
1.5670201e-03
1.6579468e-03
1.6965993e-03
1.6816421e-03
1.6147471e-03
1.5004617e-03
1.3458079e-03
1.1596467e-03
9.5186944e-04
7.3250378e-04
5.1084069e-04
2.9469038e-04
8.9860502e-05
-1.0008022e-04
-2.7373021e-04
-4.3149691e-04
-5.7501595e-04
-7.0644095e-04
-8.2770899e-04
-9.3988260e-04
-1.0426534e-03
-1.1340720e-03
-1.2105408e-03
-1.2670772e-03
-1.2978163e-03
-1.2966939e-03
-1.2582270e-03
-1.1782929e-03
-1.0548024e-03
-8.8820864e-04
-6.8188013e-04
-4.4227409e-04
-1.7875292e-04
9.6965365e-05
3.7162218e-04
6.3139395e-04
8.6291174e-04
1.0542180e-03
1.1955770e-03
1.2800852e-03
1.3040586e-03
1.2672005e-03
1.1725680e-03
1.0263632e-03
8.3757329e-04
6.1748223e-04
3.7907006e-04
1.3631586e-04
-9.6581017e-05
-3.0603821e-04
-4.7995250e-04
-6.0854083e-04
-6.8510521e-04
-7.0665866e-04
-6.7434409e-04
-5.9357686e-04
-4.7385002e-04
-3.2816408e-04
-1.7208025e-04
-2.2444916e-05
1.0411680e-04
1.9280017e-04
2.3214979e-04
2.1534804e-04
1.4110148e-04
1.3990072e-05
-1.5580609e-04
-3.5341708e-04
-5.6073826e-04
-7.5825503e-04
-9.2703434e-04
-1.0506255e-03
-1.1166242e-03
-1.1177606e-03
-1.0524240e-03
-9.2458305e-04
-7.4313709e-04
-5.2080965e-04
-2.7274540e-04
-1.4996799e-05
2.3692182e-04
4.6926637e-04
6.7098046e-04
8.3424681e-04
9.5466862e-04
1.0311155e-03
1.0652958e-03
1.0611321e-03
1.0240284e-03
9.6011892e-04
8.7558676e-04
7.7612611e-04
6.6659165e-04
5.5084639e-04
4.3178564e-04
3.1149206e-04
1.9146596e-04
7.2876790e-05
-4.3207546e-05
-1.5563878e-04
-2.6306060e-04
-3.6382952e-04
-4.5597801e-04
-5.3721981e-04
-6.0500318e-04
-6.5661527e-04
-6.8933269e-04
-7.0060311e-04
-6.8825015e-04
-6.5072013e-04
-5.8737046e-04
-4.9873351e-04
-3.8667600e-04
-2.5442177e-04
-1.0644892e-04
5.1709872e-05
2.1373319e-04
3.7281514e-04
5.2198431e-04
6.5441794e-04
7.6373784e-04
8.4427998e-04
8.9133522e-04
9.0136163e-04
8.7217157e-04
8.0309680e-04
6.9513281e-04
5.5105592e-04
3.7549608e-04
1.7494056e-04
-4.2357292e-05
-2.6658577e-04
-4.8671419e-04
-6.9097140e-04
-8.6745880e-04
-1.0048747e-03
-1.0933040e-03
-1.1250056e-03
-1.0951177e-03
-1.0022030e-03
-8.4856452e-04
-6.4028851e-04
-3.8699699e-04
-1.0132881e-04
2.0179835e-04
5.0607335e-04
7.9474924e-04
1.0516039e-03
1.2618472e-03
1.4129328e-03
1.4952483e-03
1.5026791e-03
1.4330040e-03
1.2880593e-03
1.0736451e-03
7.9918870e-04
4.7718485e-04
1.2245074e-04
-2.4875426e-04
-6.1967736e-04
-9.7401479e-04
-1.2967742e-03
-1.5749980e-03
-1.7983106e-03
-1.9592755e-03
-2.0535656e-03
-2.0799612e-03
-2.0401951e-03
-1.9386588e-03
-1.7819911e-03
-1.5785732e-03
-1.3379683e-03
-1.0703446e-03
-7.8592259e-04
-4.9447377e-04
-2.0489726e-04
7.5109100e-05
3.3926710e-04
5.8281866e-04
8.0251091e-04
9.9647949e-04
1.1640538e-03
1.3055145e-03
1.4218339e-03
1.5144300e-03
1.5849540e-03
1.6351275e-03
1.6666325e-03
1.6810645e-03
1.6798831e-03
1.6642059e-03
1.6344577e-03
1.5900835e-03
1.5294387e-03
1.4498846e-03
1.3480981e-03
1.2205797e-03
1.0643091e-03
8.7747105e-04
6.6015171e-04
4.1489088e-04
1.4697921e-04
-1.3558623e-04
-4.2252426e-04
-7.0204128e-04
-9.6185683e-04
-1.1903362e-03
-1.3775623e-03
-1.5161955e-03
-1.6020172e-03
-1.6341197e-03
-1.6147646e-03
-1.5489757e-03
-1.4439500e-03
-1.3083704e-03
-1.1516941e-03
-9.8347121e-04
-8.1272931e-04
-6.4744538e-04
-4.9412690e-04
-3.5752306e-04
-2.4048363e-04
-1.4397275e-04
-6.7232730e-05
-8.0828034e-06
3.6671668e-05
7.0754544e-05
9.7905112e-05
1.2142045e-04
1.4383909e-04
1.6674767e-04
1.9066307e-04
2.1501789e-04
2.3828652e-04
2.5824503e-04
2.7233245e-04
2.7807022e-04
2.7349514e-04
2.5756167e-04
2.3046683e-04
1.9384850e-04
1.5081208e-04
1.0575727e-04
6.4003500e-05
3.1244344e-05
1.2890488e-05
1.3382283e-05
3.5560924e-05
8.0182357e-05
1.4564231e-04
2.2795857e-04
3.2103019e-04
4.1716325e-04
5.0781827e-04
5.8449976e-04
6.3968002e-04
6.6763661e-04
6.6508925e-04
6.3154871e-04
5.6933170e-04
4.8324473e-04
3.7998679e-04
2.6735851e-04
1.5338857e-04
4.5494205e-05
-5.0220232e-05
-1.2944912e-04
-1.8991111e-04
-2.3132035e-04
-2.5519239e-04
-2.6455200e-04
-2.6349285e-04
-2.5658251e-04
-2.4821155e-04
-2.4198161e-04
-2.4020437e-04
-2.4357464e-04
-2.5106331e-04
-2.6005001e-04
-2.6668583e-04
-2.6644903e-04
-2.5483530e-04
-2.2810643e-04
-1.8400921e-04
-1.2237046e-04
-4.5480255e-05
4.1804320e-05
1.3227001e-04
2.1686918e-04
2.8551057e-04
3.2804319e-04
3.3533367e-04
3.0032632e-04
2.1897806e-04
9.0971175e-05
-7.9876856e-05
-2.8556394e-04
-5.1424117e-04
-7.5092693e-04
-9.7854899e-04
-1.1792344e-03
-1.3357457e-03
-1.4329474e-03
-1.4591808e-03
-1.4074230e-03
-1.2761102e-03
-1.0695221e-03
-7.9764777e-04
-4.7550035e-04
-1.2190098e-04
2.4206786e-04
5.9465931e-04
9.1504137e-04
1.1848648e-03
1.3897069e-03
1.5202469e-03
1.5730457e-03
1.5508360e-03
1.4622602e-03
1.3210509e-03
1.1447054e-03
9.5277626e-04
7.6494896e-04
5.9911834e-04
4.6968189e-04
3.8624850e-04
3.5290541e-04
3.6810542e-04
4.2514742e-04
5.1314490e-04
6.1832357e-04
7.2546710e-04
8.1933656e-04
8.8591915e-04
9.1340720e-04
8.9285999e-04
8.1855003e-04
6.8803287e-04
5.0200368e-04
2.6401518e-04
-1.9868369e-05
-3.4141797e-04
-6.9054879e-04
-1.0555851e-03
-1.4235099e-03
-1.7802524e-03
-2.1110775e-03
-2.4011249e-03
-2.6361414e-03
-2.8034102e-03
-2.8926706e-03
-2.8967289e-03
-2.8117421e-03
-2.6372870e-03
-2.3762674e-03
-2.0347092e-03
-1.6215051e-03
-1.1481591e-03
-6.2855961e-04
-7.8767900e-05
4.8322021e-04
1.0378118e-03
1.5643262e-03
2.0417269e-03
2.4495878e-03
2.7692578e-03
2.9851476e-03
3.0860199e-03
3.0661464e-03
2.9261813e-03
2.6736204e-03
2.3227450e-03
1.8939982e-03
1.4127938e-03
9.0781978e-04
4.0896106e-04
-5.4983077e-05
-4.5857485e-04
-7.8178446e-04
-1.0115932e-03
-1.1429756e-03
-1.1791474e-03
-1.1310510e-03
-1.0161408e-03
-8.5660514e-04
-6.7720925e-04
-5.0296200e-04
-3.5681297e-04
-2.5761329e-04
-2.1851573e-04
-2.4581595e-04
-3.3828625e-04
-4.8718962e-04
-6.7705140e-04
-8.8712180e-04
-1.0933915e-03
-1.2709544e-03
-1.3964653e-03
-1.4504270e-03
-1.4190666e-03
-1.2956126e-03
-1.0808677e-03
-7.8305563e-04
-4.1700960e-04
-2.8317055e-06
4.3580755e-04
8.7354810e-04
1.2852238e-03
1.6475979e-03
1.9408273e-03
2.1495665e-03
2.2636660e-03
2.2784604e-03
2.1946855e-03
2.0180867e-03
1.7587958e-03
1.4305480e-03
1.0498036e-03
6.3482402e-04
2.0474317e-04
-2.2133723e-04
-6.2520594e-04
-9.9033221e-04
-1.3025633e-03
-1.5507030e-03
-1.7269467e-03
-1.8271492e-03
-1.8509033e-03
-1.8014402e-03
-1.6853941e-03
-1.5124160e-03
-1.2945716e-03
-1.0455233e-03
-7.7956331e-04
-5.1059489e-04
-2.5116776e-04
-1.1661423e-05
2.0030496e-04
3.8018023e-04
5.2647899e-04
6.4047756e-04
7.2565343e-04
7.8694531e-04
8.2993060e-04
8.6002051e-04
8.8175984e-04
8.9829654e-04
9.1105938e-04
9.1965602e-04
9.2198051e-04
9.1450238e-04
8.9270053e-04
8.5160205e-04
7.8638448e-04
6.9299693e-04
5.6875200e-04
4.1283794e-04
2.2670179e-04
1.4260027e-05
-2.1809530e-04
-4.6171029e-04
-7.0609800e-04
-9.3955794e-04
-1.1499438e-03
-1.3255200e-03
-1.4558340e-03
-1.5325221e-03
-1.5499674e-03
-1.5057474e-03
-1.4008233e-03
-1.2394691e-03
-1.0289881e-03
-7.7923899e-04
-5.0197600e-04
-2.1005637e-04
8.3411556e-05
3.6590651e-04
6.2625060e-04
8.5522770e-04
1.0460236e-03
1.1944643e-03
1.2990447e-03
1.3607567e-03
1.3827395e-03
1.3697904e-03
1.3277812e-03
1.2630323e-03
1.1816976e-03
1.0892096e-03
9.8983413e-04
8.8637481e-04
7.8005739e-04
6.7060248e-04
5.5647825e-04
4.3530338e-04
3.0435229e-04
1.6110224e-04
3.7598220e-06
-1.6828809e-04
-3.5414204e-04
-5.5120683e-04
-7.5517509e-04
-9.6018058e-04
-1.1591093e-03
-1.3440412e-03
-1.5067842e-03
-1.6394534e-03
-1.7350427e-03
-1.7879410e-03
-1.7943828e-03
-1.7528829e-03
-1.6646411e-03
-1.5337700e-03
-1.3672226e-03
-1.1743785e-03
-9.6630707e-04
-7.5476070e-04
-5.5099687e-04
-3.6455487e-04
-2.0212953e-04
-6.6683034e-05
4.3080784e-05
1.3278799e-04
2.1196709e-04
2.9313226e-04
3.9044049e-04
5.1803348e-04
6.8821377e-04
9.0963420e-04
1.1856957e-03
1.5133458e-03
1.8824455e-03
2.2758249e-03
2.6700807e-03
3.0370913e-03
3.3461367e-03
3.5664340e-03
3.6698429e-03
3.6334778e-03
3.4419816e-03
3.0892500e-03
2.5794504e-03
1.9272364e-03
1.1571224e-03
3.0205320e-04
-5.9872806e-04
-1.5023479e-03
-2.3652861e-03
-3.1464469e-03
-3.8100325e-03
-4.3278441e-03
-4.6807843e-03
-4.8595617e-03
-4.8646081e-03
-4.7052534e-03
-4.3983037e-03
-3.9662051e-03
-3.4349997e-03
-2.8322686e-03
-2.1852327e-03
-1.5191454e-03
-8.5608031e-04
-2.1418112e-04
3.9259878e-04
9.5428618e-04
1.4642792e-03
1.9184539e-03
2.3141309e-03
2.6490632e-03
2.9206060e-03
3.1252080e-03
3.2583180e-03
3.3147409e-03
3.2894034e-03
3.1784214e-03
2.9803033e-03
2.6970921e-03
2.3352439e-03
1.9060660e-03
1.4255897e-03
9.1383201e-04
3.9348928e-04
-1.1180959e-04
-5.7949266e-04
-9.9003133e-04
-1.3286581e-03
-1.5865668e-03
-1.7614018e-03
-1.8569657e-03
-1.8822773e-03
-1.8502361e-03
-1.7760340e-03
-1.6753385e-03
-1.5623754e-03
-1.4481855e-03
-1.3393458e-03
-1.2373668e-03
-1.1388693e-03
-1.0365135e-03
-9.2054487e-04
-7.8073287e-04
-6.0842693e-04
-3.9843929e-04
-1.5049203e-04
1.2997294e-04
4.3173851e-04
7.3853745e-04
1.0304920e-03
1.2861178e-03
1.4846726e-03
1.6085775e-03
1.6456194e-03
1.5906527e-03
1.4465644e-03
1.2243511e-03
9.4226046e-04
6.2407289e-04
2.9671553e-04
-1.2501750e-05
-2.7868249e-04
-4.8182063e-04
-6.0865831e-04
-6.5372254e-04
-6.1946539e-04
-5.1556013e-04
-3.5751395e-04
-1.6482825e-04
4.1034660e-05
2.3859596e-04
4.0811980e-04
5.3329840e-04
6.0269510e-04
6.1059867e-04
5.5718328e-04
4.4804036e-04
2.9320467e-04
1.0584490e-04
-9.9189110e-05
-3.0677920e-04
-5.0276405e-04
-6.7488005e-04
-8.1337633e-04
-9.1131364e-04
-9.6459439e-04
-9.7179115e-04
-9.3384381e-04
-8.5368840e-04
-7.3587180e-04
-5.8619874e-04
-4.1144607e-04
-2.1915809e-04
-1.7508715e-05
1.8480989e-04
3.7872901e-04
5.5503509e-04
7.0473805e-04
8.1959222e-04
8.9274169e-04
9.1941709e-04
8.9757575e-04
8.2836335e-04
7.1628823e-04
5.6903934e-04
3.9693624e-04
2.1206254e-04
2.7190810e-05
-1.4535329e-04
-2.9472613e-04
-4.1233132e-04
-4.9222664e-04
-5.3130948e-04
-5.2941287e-04
-4.8920242e-04
-4.1578282e-04
-3.1609072e-04
-1.9820554e-04
-7.0702808e-05
5.7864709e-05
1.7932866e-04
2.8613525e-04
3.7150862e-04
4.2962557e-04
4.5586426e-04
4.4714991e-04
4.0237100e-04
3.2279394e-04
2.1237634e-04
7.7872190e-05
-7.1362579e-05
-2.2392132e-04
-3.6726055e-04
-4.8891684e-04
-5.7789852e-04
-6.2607033e-04
-6.2932664e-04
-5.8836222e-04
-5.0889255e-04
-4.0123940e-04
-2.7927701e-04
-1.5882338e-04
-5.5652172e-05
1.6624460e-05
4.8509134e-05
3.6117444e-05
-1.8019807e-05
-1.0499832e-04
-2.1045118e-04
-3.1621960e-04
-4.0253086e-04
-4.5046636e-04
-4.4464093e-04
-3.7574324e-04
-2.4229801e-04
-5.1259460e-05
1.8261524e-04
4.3847687e-04
6.9189586e-04
9.1779973e-04
1.0934351e-03
1.2009841e-03
1.2295365e-03
1.1762169e-03
1.0463753e-03
8.5286419e-04
6.1452231e-04
3.5406342e-04
9.5619394e-05
-1.3778862e-04
-3.2657954e-04
-4.5650182e-04
-5.1990118e-04
-5.1626175e-04
-4.5199847e-04
-3.3955618e-04
-1.9593987e-04
-4.0854309e-05
1.0533724e-04
2.2362458e-04
2.9814464e-04
3.1760823e-04
2.7625355e-04
1.7426976e-04
1.7684822e-05
-1.8223971e-04
-4.1002670e-04
-6.4731186e-04
-8.7437244e-04
-1.0717474e-03
-1.2218262e-03
-1.3103192e-03
-1.3275167e-03
-1.2691563e-03
-1.1367936e-03
-9.3768796e-04
-6.8421270e-04
-3.9282355e-04
-8.2666262e-05
2.2604079e-04
5.1367926e-04
7.6278077e-04
9.5929908e-04
1.0934945e-03
1.1603751e-03
1.1596929e-03
1.0955392e-03
9.7561638e-04
8.1029178e-04
6.1154677e-04
3.9193802e-04
1.6367474e-04
-6.2106653e-05
-2.7582099e-04
-4.6965177e-04
-6.3752480e-04
-7.7488427e-04
-8.7834201e-04
-9.4528607e-04
-9.7353655e-04
-9.6112417e-04
-9.0624648e-04
-8.0742927e-04
-6.6388860e-04
-4.7605412e-04
-2.4618054e-04
2.1054282e-05
3.1808230e-04
6.3422409e-04
9.5580295e-04
1.2666499e-03
1.5489595e-03
1.7843128e-03
1.9547421e-03
2.0438974e-03
2.0383470e-03
1.9289262e-03
1.7120037e-03
1.3905197e-03
9.7464250e-04
4.8190443e-04
-6.3293280e-05
-6.3086491e-04
-1.1869022e-03
-1.6961183e-03
-2.1246921e-03
-2.4432510e-03
-2.6296810e-03
-2.6714394e-03
-2.5670764e-03
-2.3267479e-03
-1.9716011e-03
-1.5320438e-03
-1.0450415e-03
-5.5070682e-04
-8.8533159e-05
3.0633593e-04
6.0641607e-04
7.9442584e-04
8.6479728e-04
8.2398950e-04
6.8956791e-04
4.8814686e-04
2.5242117e-04
1.7617047e-05
-1.8223685e-04
-3.1779304e-04
-3.6722709e-04
-3.1812329e-04
-1.6821279e-04
7.5082528e-05
3.9609747e-04
7.7289286e-04
1.1794285e-03
1.5879062e-03
1.9711399e-03
2.3046727e-03
2.5684171e-03
2.7476814e-03
2.8335496e-03
2.8226718e-03
2.7165964e-03
2.5208141e-03
2.2436931e-03
1.8954650e-03
1.4873829e-03
1.0311244e-03
5.3845808e-04
2.1152864e-05
-5.0892965e-04
-1.0396388e-03
-1.5583303e-03
-2.0517540e-03
-2.5061206e-03
-2.9074022e-03
-3.2418747e-03
-3.4968580e-03
-3.6615706e-03
-3.7279897e-03
-3.6916017e-03
-3.5519450e-03
-3.3128777e-03
-2.9825418e-03
-2.5730327e-03
-2.0998130e-03
-1.5809249e-03
-1.0360689e-03
-4.8562055e-04
5.0345569e-05
5.5296040e-04
1.0053751e-03
1.3935501e-03
1.7070186e-03
1.9394678e-03
2.0890314e-03
2.1582894e-03
2.1539938e-03
2.0865424e-03
1.9692300e-03
1.8173118e-03
1.6469160e-03
1.4738504e-03
1.3123712e-03
1.1740000e-03
1.0664991e-03
9.9312089e-04
9.5224497e-04
9.3749231e-04
9.3836117e-04
9.4136330e-04
9.3156401e-04
8.9436211e-04
8.1730107e-04
6.9168975e-04
5.1382977e-04
2.8569513e-04
1.4978206e-05
-2.8550219e-04
-5.9895574e-04
-9.0619752e-04
-1.1874626e-03
-1.4242572e-03
-1.6010539e-03
-1.7066634e-03
-1.7351638e-03
-1.6863189e-03
-1.5654741e-03
-1.3829702e-03
-1.1531533e-03
-8.9309119e-04
-6.2116575e-04
-3.5562786e-04
-1.1304646e-04
9.3237708e-05
2.5433133e-04
3.6647133e-04
4.3110987e-04
4.5441025e-04
4.4622383e-04
4.1867500e-04
3.8452700e-04
3.5553006e-04
3.4095675e-04
3.4650217e-04
3.7367187e-04
4.1970808e-04
4.7803203e-04
5.3911889e-04
5.9168214e-04
6.2402553e-04
6.2541938e-04
5.8736805e-04
5.0465171e-04
3.7604798e-04
2.0466936e-04
-2.1103504e-06
-2.3313110e-04
-4.7428015e-04
-7.0961361e-04
-9.2266796e-04
-1.0978415e-03
-1.2217148e-03
-1.2841843e-03
-1.2793070e-03
-1.2057810e-03
-1.0670276e-03
-8.7087864e-04
-6.2891407e-04
-3.5552507e-04
-6.6801033e-05
2.2063998e-04
4.9080086e-04
7.2942111e-04
9.2496841e-04
1.0693616e-03
1.1583564e-03
1.1915897e-03
1.1723053e-03
1.1068102e-03
1.0037334e-03
8.7316955e-04
7.2578907e-04
5.7198756e-04
4.2114123e-04
2.8102016e-04
1.5739277e-04
5.3830333e-05
-2.8300604e-05
-8.9683317e-05
-1.3276512e-04
-1.6137386e-04
-1.8027035e-04
-1.9467029e-04
-2.0976994e-04
-2.3030620e-04
-2.6017604e-04
-3.0213173e-04
-3.5756220e-04
-4.2636599e-04
-5.0691851e-04
-5.9613527e-04
-6.8963231e-04
-7.8198148e-04
-8.6705203e-04
-9.3842274e-04
-9.8984267e-04
-1.0157106e-03
-1.0115332e-03
-9.7431274e-04
-9.0281041e-04
-7.9764319e-04
-6.6119995e-04
-4.9739202e-04
-3.1127125e-04
-1.0857956e-04
1.0469777e-04
3.2271184e-04
5.4001246e-04
7.5166696e-04
9.5323857e-04
1.1406512e-03
1.3099843e-03
1.4572488e-03
1.5781988e-03
1.6682322e-03
1.7224252e-03
1.7357243e-03
1.7032983e-03
1.6210289e-03
1.4860971e-03
1.2976064e-03
1.0571673e-03
7.6935592e-04
4.4196534e-04
8.5977616e-05
-2.8478405e-04
-6.5433152e-04
-1.0054819e-03
-1.3210432e-03
-1.5850999e-03
-1.7842602e-03
-1.9087326e-03
-1.9531170e-03
-1.9168371e-03
-1.8041724e-03
-1.6238931e-03
-1.3885342e-03
-1.1133793e-03
-8.1524940e-04
-5.1120565e-04
-2.1730075e-04
5.2586768e-05
2.8778115e-04
4.8138018e-04
6.3019658e-04
7.3424121e-04
7.9593814e-04
8.1922494e-04
8.0869860e-04
7.6894278e-04
7.0412153e-04
6.1786023e-04
5.1337354e-04
3.9375427e-04
2.6231367e-04
1.2286475e-04
-2.0135368e-05
-1.6162622e-04
-2.9616317e-04
-4.1827104e-04
-5.2286611e-04
-6.0567448e-04
-6.6358214e-04
-6.9486508e-04
-6.9926390e-04
-6.7788843e-04
-6.3296600e-04
-5.6748019e-04
-4.8477236e-04
-3.8818682e-04
-2.8082847e-04
-1.6547456e-04
-4.4646684e-05
7.9191113e-05
2.0338035e-04
3.2485682e-04
4.4006910e-04
5.4508207e-04
6.3587367e-04
7.0879113e-04
7.6109117e-04
7.9147061e-04
8.0046955e-04
7.9061541e-04
7.6626627e-04
7.3318550e-04
6.9788341e-04
6.6679086e-04
6.4537060e-04
6.3729390e-04
6.4380615e-04
6.6338061e-04
6.9171951e-04
7.2211306e-04
7.4611272e-04
7.5442737e-04
7.3792195e-04
6.8859464e-04
6.0042655e-04
4.7002947e-04
2.9705298e-04
8.4343594e-05
-1.6212900e-04
-4.3355116e-04
-7.1871854e-04
-1.0046322e-03
-1.2772076e-03
-1.5220648e-03
-1.7253595e-03
-1.8746079e-03
-1.9594500e-03
-1.9723001e-03
-1.9088424e-03
-1.7683503e-03
-1.5538244e-03
-1.2719574e-03
-9.3293809e-04
-5.5010981e-04
-1.3949598e-04
2.8079512e-04
6.9129746e-04
1.0721778e-03
1.4044977e-03
1.6714278e-03
1.8592437e-03
1.9581649e-03
1.9630386e-03
1.8738172e-03
1.6957672e-03
1.4393490e-03
1.1197252e-03
7.5588483e-04
3.6942235e-04
-1.6938937e-05
-3.8094555e-04
-7.0237650e-04
-9.6441761e-04
-1.1547238e-03
-1.2660890e-03
-1.2966874e-03
-1.2498962e-03
-1.1337466e-03
-9.6008784e-04
-7.4356057e-04
-5.0048098e-04
-2.4772187e-04
-1.6666942e-06
2.2270031e-04
4.1251936e-04
5.5756980e-04
6.5057361e-04
6.8730850e-04
6.6656448e-04
5.8998457e-04
4.6183128e-04
2.8871503e-04
7.9305911e-05
-1.5596749e-04
-4.0524547e-04
-6.5561452e-04
-8.9355674e-04
-1.1054660e-03
-1.2781303e-03
-1.3991063e-03
-1.4571212e-03
-1.4426611e-03
-1.3487532e-03
-1.1718665e-03
-9.1280708e-04
-5.7745714e-04
-1.7719988e-04
2.7110035e-04
7.4564331e-04
1.2207743e-03
1.6685432e-03
2.0606225e-03
2.3704236e-03
2.5752201e-03
2.6580839e-03
2.6094447e-03
2.4281177e-03
2.1216853e-03
1.7061820e-03
1.2050912e-03
6.4773189e-04
6.7167633e-05
-5.0218596e-04
-1.0270565e-03
-1.4777103e-03
-1.8300581e-03
-2.0673066e-03
-2.1810256e-03
-2.1715421e-03
-2.0476286e-03
-1.8255082e-03
-1.5272625e-03
-1.1787955e-03
-8.0755930e-04
-4.4027964e-04
-1.0091268e-04
1.9095133e-04
4.2119000e-04
5.8191642e-04
6.7191402e-04
6.9652742e-04
6.6691906e-04
5.9878607e-04
5.1069890e-04
4.2223316e-04
3.5206165e-04
3.1615858e-04
3.2624708e-04
3.8859669e-04
5.0325298e-04
6.6375696e-04
8.5738528e-04
1.0659131e-03
1.2668686e-03
1.4352149e-03
1.5453621e-03
1.5733794e-03
1.4992457e-03
1.3089485e-03
9.9623248e-04
5.6381780e-04
2.3949362e-05
-6.0180660e-04
-1.2835397e-03
-1.9847028e-03
-2.6644424e-03
-3.2803812e-03
-3.7916307e-03
-4.1617778e-03
-4.3615868e-03
-4.3711889e-03
-4.1815835e-03
-3.7953457e-03
-3.2264966e-03
-2.4995598e-03
-1.6478719e-03
-7.1128144e-04
2.6657032e-04
1.2409767e-03
2.1684949e-03
3.0089738e-03
3.7274699e-03
4.2959711e-03
4.6947872e-03
4.9134722e-03
4.9511704e-03
4.8163268e-03
4.5257510e-03
4.1030865e-03
3.5767969e-03
2.9778418e-03
2.3372640e-03
1.6839350e-03
1.0426922e-03
4.3305213e-04
-1.3139932e-04
-6.4292814e-04
-1.0989617e-03
-1.5009274e-03
-1.8528037e-03
-2.1595809e-03
-2.4258200e-03
-2.6544691e-03
-2.8460554e-03
-2.9983254e-03
-3.1063521e-03
-3.1630811e-03
-3.1602436e-03
-3.0895296e-03
-2.9438924e-03
-2.7188410e-03
-2.4135727e-03
-2.0318136e-03
-1.5822562e-03
-1.0785349e-03
-5.3872668e-04
1.5575198e-05
5.6063839e-04
1.0723055e-03
1.5275922e-03
1.9059532e-03
2.1903482e-03
2.3681435e-03
2.4317987e-03
2.3793040e-03
2.2143547e-03
1.9462636e-03
1.5896273e-03
1.1637673e-03
6.9196741e-04
2.0052426e-04
-2.8237605e-04
-7.2794768e-04
-1.1082497e-03
-1.3977566e-03
-1.5749910e-03
-1.6241205e-03
-1.5363922e-03
-1.3112740e-03
-9.5717564e-04
-4.9164732e-04
5.9022909e-05
6.6085090e-04
1.2738395e-03
1.8542589e-03
2.3574302e-03
2.7408643e-03
2.9675553e-03
3.0091832e-03
2.8489501e-03
2.4837654e-03
1.9255162e-03
1.2012112e-03
3.5186407e-04
-5.6990224e-04
-1.5034210e-03
-2.3844558e-03
-3.1502717e-03
-3.7447677e-03
-4.1229144e-03
-4.2541345e-03
-4.1245817e-03
-3.7382414e-03
-3.1168100e-03
-2.2983856e-03
-1.3350550e-03
-2.8950896e-04
7.6913711e-04
1.7700880e-03
2.6458930e-03
3.3374022e-03
3.7982692e-03
3.9986087e-03
3.9274716e-03
3.5938938e-03
3.0264022e-03
2.2709960e-03
1.3877493e-03
4.4629421e-04
-4.7947343e-04
-1.3170635e-03
-2.0010148e-03
-2.4780544e-03
-2.7114066e-03
-2.6839047e-03
-2.3996239e-03
-1.8838373e-03
-1.1812217e-03
-3.5238753e-04
5.3102272e-04
1.3922627e-03
2.1559109e-03
2.7542013e-03
3.1326528e-03
3.2544477e-03
3.1031318e-03
2.6834193e-03
2.0202188e-03
1.1562820e-03
1.4880240e-04
-9.3489432e-04
-2.0223020e-03
-3.0408708e-03
-3.9228834e-03
-4.6097269e-03
-5.0553385e-03
-5.2287072e-03
-5.1154021e-03
-4.7181520e-03
-4.0565223e-03
-3.1657420e-03
-2.0947313e-03
-9.0338198e-04
3.4084127e-04
1.5668724e-03
2.7044164e-03
3.6884674e-03
4.4636437e-03
4.9879671e-03
5.2357246e-03
5.1991145e-03
4.8884935e-03
4.3311857e-03
3.5689704e-03
2.6545064e-03
1.6470627e-03
6.0798751e-04
-4.0364322e-04
-1.3348148e-03
-2.1415149e-03
-2.7906704e-03
-3.2610543e-03
-3.5432486e-03
-3.6388348e-03
-3.5590217e-03
-3.3229238e-03
-2.9557746e-03
-2.4871526e-03
-1.9489663e-03
-1.3733334e-03
-7.9078895e-04
-2.2892561e-04
2.8857430e-04
7.4253146e-04
1.1185390e-03
1.4069793e-03
1.6028660e-03
1.7055809e-03
1.7185584e-03
1.6489462e-03
1.5072484e-03
1.3069323e-03
1.0639675e-03
7.9625381e-04
5.2289730e-04
2.6330724e-04
3.6116177e-05
-1.4203181e-04
-2.5773280e-04
-3.0198614e-04
-2.7112670e-04
-1.6739408e-04
9.6231874e-07
2.2009888e-04
4.7151773e-04
7.3347875e-04
9.8277777e-04
1.1967381e-03
1.3552290e-03
1.4425126e-03
1.4487281e-03
1.3708588e-03
1.2130708e-03
9.8637485e-04
7.0762931e-04
3.9797658e-04
8.0867172e-05
-2.2015654e-04
-4.8369147e-04
-6.9242673e-04
-8.3461220e-04
-9.0494999e-04
-9.0485702e-04
-8.4210427e-04
-7.2990396e-04
-5.8556578e-04
-4.2887233e-04
-2.8033290e-04
-1.5946608e-04
-8.3241893e-05
-6.4788866e-05
-1.1244168e-04
-2.2917103e-04
-4.1240481e-04
-6.5422593e-04
-9.4191848e-04
-1.2588249e-03
-1.5854651e-03
-1.9008505e-03
-2.1839085e-03
-2.4149129e-03
-2.5768032e-03
-2.6562765e-03
-2.6445495e-03
-2.5377260e-03
-2.3367538e-03
-2.0470073e-03
-1.6775834e-03
-1.2404299e-03
-7.4943963e-04
-2.1963206e-04
3.3348898e-04
8.9435529e-04
1.4475366e-03
1.9777758e-03
2.4699429e-03
2.9090603e-03
3.2805415e-03
3.5706191e-03
3.7669329e-03
3.8593135e-03
3.8407049e-03
3.7081053e-03
3.4633940e-03
3.1138847e-03
2.6724540e-03
2.1571420e-03
1.5901958e-03
9.9661836e-04
4.0236785e-04
-1.6758000e-04
-6.9106489e-04
-1.1502374e-03
-1.5325366e-03
-1.8310546e-03
-2.0442904e-03
-2.1753925e-03
-2.2310515e-03
-2.2202348e-03
-2.1529477e-03
-2.0391727e-03
-1.8880900e-03
-1.7076283e-03
-1.5043394e-03
-1.2835550e-03
-1.0497476e-03
-8.0700564e-04
-5.5952299e-04
-3.1200590e-04
-6.9919170e-05
1.6048257e-04
3.7235390e-04
5.5866240e-04
7.1273248e-04
8.2883775e-04
9.0274120e-04
9.3213712e-04
9.1698381e-04
8.5961396e-04
7.6453648e-04
6.3802857e-04
4.8764401e-04
3.2170798e-04
1.4885073e-04
-2.2388439e-05
-1.8387517e-04
-3.2811826e-04
-4.4845236e-04
-5.3919107e-04
-5.9577568e-04
-6.1493808e-04
-5.9488763e-04
-5.3551926e-04
-4.3862473e-04
-3.0807159e-04
-1.4989939e-04
2.7723387e-05
2.1473062e-04
3.9960693e-04
5.7005362e-04
7.1383678e-04
8.1974457e-04
8.7855359e-04
8.8389505e-04
8.3291986e-04
7.2667821e-04
5.7015651e-04
3.7195503e-04
1.4364172e-04
-1.0113485e-04
-3.4766686e-04
-5.8124103e-04
-7.8814269e-04
-9.5654217e-04
-1.0772006e-03
-1.1439333e-03
-1.1537953e-03
-1.1069911e-03
-1.0066034e-03
-8.5824255e-04
-6.6959041e-04
-4.4980683e-04
-2.0886001e-04
4.3146621e-05
2.9658210e-04
5.4276882e-04
7.7428822e-04
9.8508361e-04
1.1703638e-03
1.3263486e-03
1.4499327e-03
1.5383580e-03
1.5889838e-03
1.5992167e-03
1.5666273e-03
1.4892390e-03
1.3659342e-03
1.1968935e-03
9.8397590e-04
7.3095742e-04
4.4357465e-04
1.2935911e-04
-2.0271811e-04
-5.4274383e-04
-8.8043417e-04
-1.2057005e-03
-1.5091337e-03
-1.7823492e-03
-2.0181687e-03
-2.2106504e-03
-2.3550106e-03
-2.4475024e-03
-2.4853210e-03
-2.4665924e-03
-2.3904773e-03
-2.2573821e-03
-2.0692680e-03
-1.8299215e-03
-1.5448911e-03
-1.2210773e-03
-8.6624454e-04
-4.8860144e-04
-9.6471175e-05
3.0192320e-04
6.9855034e-04
1.0855438e-03
1.4550779e-03
1.7991841e-03
2.1095581e-03
2.3774161e-03
2.5934564e-03
2.7479791e-03
2.8312086e-03
2.8338483e-03
2.7478747e-03
2.5675421e-03
2.2905251e-03
1.9190724e-03
1.4610049e-03
9.3036826e-04
3.4756001e-04
-2.6120209e-04
-8.6512974e-04
-1.4307957e-03
-1.9246110e-03
-2.3156218e-03
-2.5783285e-03
-2.6952043e-03
-2.6585969e-03
-2.4717591e-03
-2.1488459e-03
-1.7138331e-03
-1.1984438e-03
-6.3928807e-04
-7.4524979e-05
4.5958761e-04
9.3185060e-04
1.3186709e-03
1.6057707e-03
1.7887938e-03
1.8726847e-03
1.8699778e-03
1.7983089e-03
1.6775595e-03
1.5270819e-03
1.3633939e-03
1.1986095e-03
1.0397225e-03
8.8871410e-04
7.4334996e-04
5.9846437e-04
4.4749684e-04
2.8404693e-04
1.0324226e-04
-9.7234406e-05
-3.1655130e-04
-5.5059433e-04
-7.9226295e-04
-1.0321196e-03
-1.2592906e-03
-1.4625028e-03
-1.6311391e-03
-1.7562055e-03
-1.8311205e-03
-1.8522582e-03
-1.8191989e-03
-1.7346688e-03
-1.6041842e-03
-1.4354576e-03
-1.2376418e-03
-1.0205008e-03
-7.9359559e-04
-5.6556901e-04
-3.4360596e-04
-1.3312383e-04
6.2285577e-05
2.4070607e-04
4.0163522e-04
5.4566774e-04
6.7413866e-04
7.8873722e-04
8.9110807e-04
9.8248433e-04
1.0634047e-03
1.1335459e-03
1.1916831e-03
1.2357742e-03
1.2631526e-03
1.2708012e-03
1.2556839e-03
1.2151077e-03
1.1470950e-03
1.0507350e-03
9.2647542e-04
7.7631380e-04
6.0385498e-04
4.1421845e-04
2.1379385e-04
9.8575062e-06
-1.8991884e-04
-3.7801528e-04
-5.4760152e-04
-6.9300253e-04
-8.1004622e-04
-8.9626781e-04
-9.5096346e-04
-9.7510022e-04
-9.7110315e-04
-9.4254967e-04
-8.9380344e-04
-8.2961664e-04
-7.5472516e-04
-6.7346300e-04
-5.8943040e-04
-5.0525672e-04
-4.2249669e-04
-3.4168705e-04
-2.6255887e-04
-1.8437703e-04
-1.0637794e-04
-2.8243697e-05
4.9488862e-05
1.2517211e-04
1.9599787e-04
2.5817011e-04
3.0728311e-04
3.3886389e-04
3.4902036e-04
3.3511980e-04
2.9640990e-04
2.3449040e-04
1.5354901e-04
6.0293382e-05
-3.6456302e-05
-1.2650390e-04
-1.9928203e-04
-2.4501969e-04
-2.5593590e-04
-2.2730589e-04
-1.5825100e-04
-5.2130197e-05
8.3540209e-05
2.3765285e-04
3.9651471e-04
5.4519016e-04
6.6903459e-04
7.5524030e-04
7.9420716e-04
7.8056875e-04
7.1375133e-04
5.9800757e-04
4.4193928e-04
2.5758867e-04
5.9229514e-05
-1.3797946e-04
-3.1930822e-04
-4.7158642e-04
-5.8412260e-04
-6.4946355e-04
-6.6390123e-04
-6.2756622e-04
-5.4409517e-04
-4.1998243e-04
-2.6376472e-04
-8.5187325e-05
1.0553173e-04
2.9827443e-04
4.8342056e-04
6.5210069e-04
7.9635684e-04
9.0926612e-04
9.8506654e-04
1.0193001e-03
1.0089646e-03
9.5265183e-04
8.5065334e-04
7.0502314e-04
5.1959933e-04
2.9998454e-04
5.3479129e-05
-2.1104960e-04
-4.8338601e-04
-7.5229552e-04
-1.0059750e-03
-1.2326135e-03
-1.4210301e-03
-1.5613411e-03
-1.6455998e-03
-1.6683558e-03
-1.6270867e-03
-1.5224641e-03
-1.3584278e-03
-1.1420508e-03
-8.8318937e-04
-5.9392839e-04
-2.8784731e-04
2.0847469e-05
3.1827366e-04
5.9180877e-04
8.3087625e-04
1.0275052e-03
1.1766368e-03
1.2761723e-03
1.3267881e-03
1.3315590e-03
1.2954436e-03
1.2246857e-03
1.1261867e-03
1.0068994e-03
8.7330223e-04
7.3100146e-04
5.8450096e-04
4.3715236e-04
2.9127582e-04
1.4841864e-04
9.7022081e-06
-1.2380130e-04
-2.5072154e-04
-3.6912356e-04
-4.7636262e-04
-5.6908715e-04
-6.4340058e-04
-6.9517296e-04
-7.2047316e-04
-7.1607419e-04
-6.7996980e-04
-6.1183341e-04
-5.1335399e-04
-3.8839902e-04
-2.4297664e-04
-8.4993194e-05
7.6175492e-05
2.3026101e-04
3.6677427e-04
4.7570999e-04
5.4821983e-04
5.7720158e-04
5.5776396e-04
4.8754565e-04
3.6689174e-04
1.9889971e-04
-1.0638656e-05
-2.5337395e-04
-5.1861185e-04
-7.9361673e-04
-1.0640286e-03
-1.3144120e-03
-1.5289446e-03
-1.6922379e-03
-1.7902662e-03
-1.8113621e-03
-1.7472117e-03
-1.5937674e-03
-1.3519832e-03
-1.0282824e-03
-6.3467621e-04
-1.8847538e-04
2.8843812e-04
7.7077230e-04
1.2313703e-03
1.6430426e-03
1.9805504e-03
2.2225719e-03
2.3534728e-03
2.3647012e-03
2.2556529e-03
2.0339004e-03
1.7147413e-03
1.3200972e-03
8.7685818e-04
4.1481911e-04
-3.5610099e-05
-4.4571255e-04
-7.9057698e-04
-1.0508117e-03
-1.2136913e-03
-1.2736511e-03
-1.2322253e-03
-1.0976103e-03
-8.8387344e-04
-6.0972206e-04
-2.9689722e-04
3.1621117e-05
3.5340294e-04
6.4817687e-04
8.9911920e-04
1.0937294e-03
1.2242520e-03
1.2876561e-03
1.2852302e-03
1.2218850e-03
1.1052829e-03
9.4492088e-04
7.5128520e-04
5.3516123e-04
3.0713893e-04
7.7301323e-05
-1.4495749e-04
-3.5106053e-04
-5.3339403e-04
-6.8551695e-04
-8.0243977e-04
-8.8093803e-04
-9.1983853e-04
-9.2020985e-04
-8.8540255e-04
-8.2090972e-04
-7.3404511e-04
-6.3346110e-04
-5.2854912e-04
-4.2877626e-04
-3.4301290e-04
-2.7889949e-04
-2.4229243e-04
-2.3682619e-04
-2.6362959e-04
-3.2120558e-04
-4.0547516e-04
-5.0998765e-04
-6.2627132e-04
-7.4433377e-04
-8.5332407e-04
-9.4230147e-04
-1.0010328e-03
-1.0207489e-03
-9.9480700e-04
-9.1921976e-04
-7.9302211e-04
-6.1845332e-04
-4.0093479e-04
-1.4883443e-04
1.2697868e-04
4.1376803e-04
6.9771316e-04
9.6478614e-04
1.2016507e-03
1.3965079e-03
1.5398161e-03
1.6248282e-03
1.6479093e-03
1.6086260e-03
1.5096211e-03
1.3563112e-03
1.1564563e-03
9.1965213e-04
6.5678613e-04
3.7948650e-04
9.9581968e-05
-1.7141462e-04
-4.2278902e-04
-6.4506218e-04
-8.3036383e-04
-9.7272288e-04
-1.0682556e-03
-1.1152348e-03
-1.1140258e-03
-1.0669050e-03
-9.7784962e-04
-8.5236789e-04
-6.9729403e-04
-5.2045914e-04
-3.3025277e-04
-1.3513484e-04
5.6847056e-05
2.3848660e-04
4.0375147e-04
5.4798383e-04
6.6794484e-04
7.6170243e-04
8.2839032e-04
8.6789209e-04
8.8051812e-04
8.6674214e-04
8.2704915e-04
7.6192080e-04
6.7195457e-04
5.5808724e-04
4.2187783e-04
2.6580094e-04
9.3500650e-05
-9.0045958e-05
-2.7850576e-04
-4.6434703e-04
-6.3919257e-04
-7.9434886e-04
-9.2145597e-04
-1.0131787e-03
-1.0638505e-03
-1.0699880e-03
-1.0306177e-03
-9.4738266e-04
-8.2443131e-04
-6.6811123e-04
-4.8650646e-04
-2.8886484e-04
-8.4968936e-05
1.1548481e-04
3.0345509e-04
4.7108005e-04
6.1214586e-04
7.2242456e-04
7.9981171e-04
8.4425502e-04
8.5750880e-04
8.4276481e-04
8.0421533e-04
7.4660006e-04
6.7477865e-04
5.9335912e-04
5.0639952e-04
4.1719110e-04
3.2812652e-04
2.4065621e-04
1.5533593e-04
7.1963784e-05
-1.0204453e-05
-9.2183862e-05
-1.7496440e-04
-2.5922505e-04
-3.4508942e-04
-4.3194627e-04
-5.1835025e-04
-6.0201351e-04
-6.7989512e-04
-7.4839003e-04
-8.0360911e-04
-8.4172890e-04
-8.5937677e-04
-8.5400801e-04
-8.2422908e-04
-7.7002781e-04
-6.9288220e-04
-5.9572996e-04
-4.8278950e-04
-3.5923269e-04
-2.3072543e-04
-1.0287247e-04
1.9366189e-05
1.3217507e-04
2.3320417e-04
3.2169197e-04
3.9838768e-04
4.6526887e-04
5.2508657e-04
5.8080549e-04
6.3502885e-04
6.8949820e-04
7.4473998e-04
7.9989993e-04
8.5277617e-04
9.0003591e-04
9.3758184e-04
9.6101897e-04
9.6616299e-04
9.4952735e-04
9.0872950e-04
8.4276770e-04
7.5213798e-04
6.3878267e-04
5.0588532e-04
3.5754727e-04
1.9839618e-04
3.3184771e-05
-1.3356139e-04
-2.9779580e-04
-4.5606962e-04
-6.0551023e-04
-7.4368064e-04
-8.6836253e-04
-9.7732154e-04
-1.0681202e-03
-1.1380404e-03
-1.1841584e-03
-1.2035833e-03
-1.1938361e-03
-1.1533188e-03
-1.0818153e-03
-9.8091551e-04
-8.5418335e-04
-7.0700166e-04
-5.4617570e-04
-3.7936983e-04
-2.1443811e-04
-5.8730408e-05
8.1544669e-05
2.0182940e-04
2.9954552e-04
3.7420954e-04
4.2732693e-04
4.6208305e-04
4.8287050e-04
4.9470890e-04
5.0262224e-04
5.1104164e-04
5.2329884e-04
5.4126486e-04
5.6517205e-04
5.9363538e-04
6.2386696e-04
6.5205683e-04
6.7387437e-04
6.8502916e-04
6.8182255e-04
6.6162353e-04
6.2321474e-04
5.6697056e-04
4.9484663e-04
4.1017921e-04
3.1731520e-04
2.2111688e-04
1.2640539e-04
3.7414132e-05
-4.2683492e-05
-1.1212133e-04
-1.7072592e-04
-2.1991439e-04
-2.6250195e-04
-3.0235640e-04
-3.4394020e-04
-3.9175598e-04
-4.4972379e-04
-5.2053521e-04
-6.0504519e-04
-7.0178386e-04
-8.0667315e-04
-9.1302292e-04
-1.0118585e-03
-1.0925944e-03
-1.1440185e-03
-1.1554951e-03
-1.1182448e-03
-1.0265294e-03
-8.7857360e-04
-6.7708461e-04
-4.2928898e-04
-1.4647667e-04
1.5688957e-04
4.6438383e-04
7.5899469e-04
1.0245100e-03
1.2467620e-03
1.4146190e-03
1.5206454e-03
1.5613965e-03
1.5373523e-03
1.4525389e-03
1.3139136e-03
1.1306087e-03
9.1312380e-04
6.7254638e-04
4.1986294e-04
1.6540492e-04
-8.1545359e-05
-3.1298556e-04
-5.2228243e-04
-7.0416200e-04
-8.5466576e-04
-9.7113818e-04
-1.0522141e-03
-1.0977233e-03
-1.1085367e-03
-1.0864202e-03
-1.0339115e-03
-9.5421204e-04
-8.5108193e-04
-7.2871836e-04
-5.9160410e-04
-4.4432305e-04
-2.9135493e-04
-1.3687376e-04
1.5418701e-05
1.6239380e-04
3.0151014e-04
4.3073749e-04
5.4840867e-04
6.5303540e-04
7.4313192e-04
8.1708733e-04
8.7311640e-04
9.0930404e-04
9.2374141e-04
9.1473717e-04
8.8107595e-04
8.2229144e-04
7.3891978e-04
6.3269862e-04
5.0667736e-04
3.6520718e-04
2.1378876e-04
5.8772969e-05
-9.3067076e-05
-2.3504982e-04
-3.6112506e-04
-4.6637294e-04
-5.4740069e-04
-6.0259135e-04
-6.3218784e-04
-6.3821324e-04
-6.2422899e-04
-5.9496359e-04
-5.5586402e-04
-5.1260350e-04
-4.7058045e-04
-4.3445504e-04
-4.0776776e-04
-3.9267219e-04
-3.8979526e-04
-3.9821958e-04
-4.1557221e-04
-4.3820349e-04
-4.6144333e-04
-4.7992699e-04
-4.8798278e-04
-4.8007045e-04
-4.5125190e-04
-3.9766719e-04
-3.1698100e-04
-2.0875871e-04
-7.4727944e-05
8.1116986e-05
2.5260232e-04
4.3167340e-04
6.0890228e-04
7.7417472e-04
9.1749999e-04
1.0298677e-03
1.1040654e-03
1.1353704e-03
1.1220308e-03
1.0654712e-03
9.7018496e-04
8.4331765e-04
6.9398784e-04
5.3242195e-04
3.6899996e-04
2.1331893e-04
7.3386966e-05
-4.4984601e-05
-1.3863692e-04
-2.0736560e-04
-2.5389223e-04
-2.8338069e-04
-3.0255735e-04
-3.1858720e-04
-3.3789568e-04
-3.6513140e-04
-4.0243603e-04
-4.4912845e-04
-5.0183517e-04
-5.5502601e-04
-6.0185517e-04
-6.3516916e-04
-6.4852491e-04
-6.3706836e-04
-5.9815480e-04
-5.3164144e-04
-4.3983710e-04
-3.2714555e-04
-1.9948190e-04
-6.3570432e-05
7.3759512e-05
2.0617784e-04
3.2829064e-04
4.3588386e-04
5.2598444e-04
5.9677427e-04
6.4740629e-04
6.7777633e-04
6.8830044e-04
6.7973408e-04
6.5305170e-04
6.0938730e-04
5.5002439e-04
4.7641747e-04
3.9022579e-04
2.9334228e-04
1.8790217e-04
7.6293682e-05
-3.8811285e-05
-1.5447071e-04
-2.6756902e-04
-3.7496070e-04
-4.7363025e-04
-5.6085048e-04
-6.3432068e-04
-6.9226810e-04
-7.3350212e-04
-7.5741566e-04
-7.6393468e-04
-7.5342483e-04
-7.2657509e-04
-6.8428800e-04
-6.2760819e-04
-5.5771274e-04
-4.7596791e-04
-3.8403313e-04
-2.8397458e-04
-1.7834482e-04
-7.0192549e-05
3.7018194e-05
1.3958485e-04
2.3382945e-04
3.1642380e-04
3.8473546e-04
4.3714037e-04
4.7324657e-04
4.9399008e-04
5.0159061e-04
4.9937835e-04
4.9151607e-04
4.8264240e-04
4.7745993e-04
4.8028989e-04
4.9461791e-04
5.2266379e-04
5.6501946e-04
6.2040397e-04
6.8558260e-04
7.5539998e-04
8.2285318e-04
8.7931682e-04
9.1505509e-04
9.2001497e-04
8.8482544e-04
8.0188956e-04
6.6643265e-04
4.7736515e-04
2.3783420e-04
-4.4627924e-05
-3.5840238e-04
-6.8851758e-04
-1.0177519e-03
-1.3279915e-03
-1.6016952e-03
-1.8233083e-03
-1.9804749e-03
-2.0649360e-03
-2.0730354e-03
-2.0058031e-03
-1.8686281e-03
-1.6705679e-03
-1.4233816e-03
-1.1403951e-03
-8.3532532e-04
-5.2119141e-04
-2.0943208e-04
9.0680094e-05
3.7227840e-04
6.3080073e-04
8.6360402e-04
1.0693900e-03
1.2475573e-03
1.3975960e-03
1.5186296e-03
1.6091780e-03
1.6671742e-03
1.6902422e-03
1.6761585e-03
1.6232862e-03
1.5308589e-03
1.3991738e-03
1.2297511e-03
1.0254511e-03
7.9052997e-04
5.3061509e-04
2.5258741e-04
-3.5635898e-05
-3.2541046e-04
-6.0774110e-04
-8.7368746e-04
-1.1147589e-03
-1.3232685e-03
-1.4926290e-03
-1.6175826e-03
-1.6943576e-03
-1.7207486e-03
-1.6961199e-03
-1.6213420e-03
-1.4986725e-03
-1.3315986e-03
-1.1246596e-03
-8.8326998e-04
-6.1356424e-04
-3.2228190e-04
-1.6699714e-05
2.9539387e-04
6.0569970e-04
9.0541393e-04
1.1852791e-03
1.4357268e-03
1.6471522e-03
1.8103379e-03
1.9170171e-03
1.9605333e-03
1.9365288e-03
1.8435779e-03
1.6836819e-03
1.4625459e-03
1.1895306e-03
8.7722639e-04
5.4068857e-04
1.9640041e-04
-1.3893742e-04
-4.4965886e-04
-7.2228880e-04
-9.4647906e-04
-1.1156286e-03
-1.2271334e-03
-1.2822589e-03
-1.2856704e-03
-1.2446980e-03
-1.1684342e-03
-1.0667766e-03
-9.4951965e-04
-8.2559127e-04
-7.0249941e-04
-5.8602553e-04
-4.8016115e-04
-3.8724904e-04
-3.0826473e-04
-2.4316485e-04
-1.9123335e-04
-1.5136871e-04
-1.2227354e-04
-1.0253087e-04
-9.0578949e-05
-8.4620011e-05
-8.2511970e-05
-8.1691387e-05
-7.9164626e-05
-7.1588475e-05
-5.5446366e-05
-2.7312518e-05
1.5818306e-05
7.6173480e-05
1.5486864e-04
2.5166294e-04
3.6482827e-04
4.9107075e-04
6.2550277e-04
7.6176727e-04
8.9235575e-04
1.0090850e-03
1.1036831e-03
1.1684263e-03
1.1967678e-03
1.1839041e-03
1.1272292e-03
1.0266370e-03
8.8463911e-04
7.0628233e-04
4.9886891e-04
2.7150210e-04
3.4499069e-05
-2.0127868e-04
-4.2512493e-04
-6.2716656e-04
-7.9897018e-04
-9.3403345e-04
-1.0281270e-03
-1.0794663e-03
-1.0887085e-03
-1.0587853e-03
-9.9459458e-04
-9.0257724e-04
-7.9020765e-04
-6.6542085e-04
-5.3601050e-04
-4.0904631e-04
-2.9037283e-04
-1.8424887e-04
-9.3168447e-05
-1.7879025e-05
4.2413507e-05
8.9687693e-05
1.2665138e-04
1.5626693e-04
1.8133394e-04
2.0413644e-04
2.2613672e-04
2.4776447e-04
2.6835888e-04
2.8627242e-04
2.9911514e-04
3.0410170e-04
2.9845357e-04
2.7980685e-04
2.4658174e-04
1.9827964e-04
1.3568429e-04
6.0953128e-05
-2.2407873e-05
-1.0968807e-04
-1.9523504e-04
-2.7283155e-04
-3.3616908e-04
-3.7938265e-04
-3.9759633e-04
-3.8742288e-04
-3.4736463e-04
-2.7807300e-04
-1.8243758e-04
-6.5490466e-05
6.5873131e-05
2.0334170e-04
3.3777212e-04
4.5986941e-04
5.6090748e-04
6.3342958e-04
6.7186991e-04
6.7304732e-04
6.3649443e-04
5.6459513e-04
4.6251157e-04
3.3789247e-04
2.0037159e-04
6.0896492e-05
-6.9127354e-05
-1.7894852e-04
-2.5969909e-04
-3.0542426e-04
-3.1371804e-04
-2.8591603e-04
-2.2685868e-04
-1.4428999e-04
-4.7990751e-05
5.1237431e-05
1.4261807e-04
2.1636402e-04
2.6446769e-04
2.8125530e-04
2.6367936e-04
2.1135822e-04
1.2639951e-04
1.3062424e-05
-1.2267867e-04
-2.7361100e-04
-4.3175595e-04
-5.8881123e-04
-7.3655212e-04
-8.6719017e-04
-9.7369199e-04
-1.0500604e-03
-1.0915760e-03
-1.0949910e-03
-1.0586697e-03
-9.8266909e-04
-8.6875964e-04
-7.2038233e-04
-5.4253573e-04
-3.4158372e-04
-1.2497703e-04
9.9111305e-05
3.2222336e-04
5.3609857e-04
7.3316163e-04
9.0698815e-04
1.0527047e-03
1.1671826e-03
1.2489367e-03
1.2978558e-03
1.3149152e-03
1.3019180e-03
1.2612769e-03
1.1958233e-03
1.1086255e-03
1.0028010e-03
8.8131827e-04
7.4680514e-04
6.0139053e-04
4.4661881e-04
2.8347180e-04
1.1252180e-04
-6.5783761e-05
-2.5073176e-04
-4.4089739e-04
-6.3370954e-04
-8.2510147e-04
-1.0093170e-03
-1.1789321e-03
-1.3251337e-03
-1.4382676e-03
-1.5086319e-03
-1.5274488e-03
-1.4879127e-03
-1.3861873e-03
-1.2222139e-03
-1.0002052e-03
-7.2873200e-04
-4.2036630e-04
-9.0902242e-05
2.4176971e-04
5.5902432e-04
8.4296498e-04
1.0778450e-03
1.2513025e-03
1.3552890e-03
1.3866351e-03
1.3472599e-03
1.2440110e-03
1.0880694e-03
8.9391077e-04
6.7792449e-04
4.5685081e-04
2.4621984e-04
5.8973072e-05
-9.5578838e-05
-2.1235641e-04
-2.9062586e-04
-3.3364652e-04
-3.4792348e-04
-3.4217506e-04
-3.2614441e-04
-3.0938738e-04
-3.0016060e-04
-3.0451837e-04
-3.2570483e-04
-3.6389770e-04
-4.1632257e-04
-4.7771456e-04
-5.4106385e-04
-5.9854722e-04
-6.4252605e-04
-6.6648420e-04
-6.6578933e-04
-6.3818658e-04
-5.8397134e-04
-5.0583294e-04
-4.0840457e-04
-2.9759236e-04
-1.7978319e-04
-6.1045999e-05
5.3558373e-05
1.6046105e-04
2.5779842e-04
3.4533389e-04
4.2411187e-04
4.9590296e-04
5.6255705e-04
6.2542644e-04
6.8495113e-04
7.4041778e-04
7.8990046e-04
8.3038606e-04
8.5806336e-04
8.6873653e-04
8.5831008e-04
8.2328685e-04
7.6122417e-04
6.7110474e-04
5.5359271e-04
4.1115866e-04
2.4806689e-04
7.0226266e-05
-1.1508822e-04
-2.9963133e-04
-4.7468382e-04
-6.3162376e-04
-7.6253590e-04
-8.6081161e-04
-9.2168401e-04
-9.4264072e-04
-9.2366447e-04
-8.6727012e-04
-7.7833064e-04
-6.6370729e-04
-5.3171744e-04
-3.9148687e-04
-2.5224150e-04
-1.2259698e-04
-9.9057185e-06
8.0279739e-05
1.4457418e-04
1.8192068e-04
1.9353171e-04
1.8262545e-04
1.5400935e-04
1.1356283e-04
6.7617162e-05
2.2254118e-05
-1.7358154e-05
-4.7462500e-05
-6.5985790e-05
-7.2580901e-05
-6.8454893e-05
-5.6021361e-05
-3.8431317e-05
-1.9047469e-05
-9.3091602e-07
1.3593566e-05
2.3237261e-05
2.7872663e-05
2.8468430e-05
2.6848504e-05
2.5320595e-05
2.6242845e-05
3.1606156e-05
4.2700076e-05
5.9907263e-05
8.2645126e-05
1.0945043e-04
1.3818467e-04
1.6632434e-04
1.9129138e-04
2.1077764e-04
2.2302293e-04
2.2701643e-04
2.2260105e-04
2.1047236e-04
1.9207892e-04
1.6944636e-04
1.4495605e-04
1.2110945e-04
1.0030776e-04
8.4674308e-05
7.5943920e-05
7.5423773e-05
8.3946486e-05
1.0173754e-04
1.2827697e-04
1.6225138e-04
2.0159027e-04
2.4356072e-04
2.8490349e-04
3.2199527e-04
3.5102573e-04
3.6818186e-04
3.6983751e-04
3.5275327e-04
3.1429849e-04
2.5270531e-04
1.6735161e-04
5.9049746e-05
-6.9698674e-05
-2.1452934e-04
-3.6916957e-04
-5.2555970e-04
-6.7417006e-04
-8.0452713e-04
-9.0593976e-04
-9.6838693e-04
-9.8349671e-04
-9.4552179e-04
-8.5220375e-04
-7.0541630e-04
-5.1148492e-04
-2.8109970e-04
-2.8775244e-05
2.2813606e-04
4.7080986e-04
6.8057207e-04
8.4061235e-04
9.3760053e-04
9.6301432e-04
9.1400914e-04
7.9370695e-04
6.1086677e-04
3.7902286e-04
1.1531941e-04
-1.6076680e-04
-4.2884174e-04
-6.6916888e-04
-8.6426758e-04
-1.0003565e-03
-1.0684856e-03
-1.0652381e-03
-9.9293130e-04
-8.5929877e-04
-6.7669007e-04
-4.6087422e-04
-2.2957076e-04
-8.5738789e-07
2.0838850e-04
3.8386567e-04
5.1491875e-04
5.9521548e-04
6.2299011e-04
6.0085817e-04
5.3525010e-04
4.3554660e-04
3.1302274e-04
1.7971890e-04
4.7352181e-05
-7.3632802e-05
-1.7479416e-04
-2.5014706e-04
-2.9631629e-04
-3.1240092e-04
-2.9960441e-04
-2.6071222e-04
-1.9951097e-04
-1.2023769e-04
-2.7127788e-05
7.5899409e-05
1.8540798e-04
2.9847646e-04
4.1259679e-04
5.2545496e-04
6.3470431e-04
7.3784904e-04
8.3219609e-04
9.1478652e-04
9.8230876e-04
1.0310452e-03
1.0569032e-03
1.0555687e-03
1.0227984e-03
9.5484497e-04
8.4898035e-04
7.0405292e-04
5.2099013e-04
3.0315477e-04
5.6479222e-05
-2.1066476e-04
-4.8786412e-04
-7.6329426e-04
-1.0245126e-03
-1.2593289e-03
-1.4566623e-03
-1.6073008e-03
-1.7044973e-03
-1.7443535e-03
-1.7259725e-03
-1.6513849e-03
-1.5252735e-03
-1.3545355e-03
-1.1477247e-03
-9.1442435e-04
-6.6460367e-04
-4.0801457e-04
-1.5367977e-04
9.0485477e-05
3.1789297e-04
5.2334005e-04
7.0293002e-04
8.5390165e-04
9.7446445e-04
1.0637502e-03
1.1218072e-03
1.1494789e-03
1.1482175e-03
1.1199461e-03
1.0669770e-03
9.9195963e-04
8.9782809e-04
7.8772725e-04
6.6491087e-04
5.3262247e-04
3.9398091e-04
2.5189622e-04
1.0903983e-04
-3.2111645e-05
-1.6915113e-04
-2.9954508e-04
-4.2040023e-04
-5.2824533e-04
-6.1888854e-04
-6.8740785e-04
-7.2831790e-04
-7.3593444e-04
-7.0492675e-04
-6.3101342e-04
-5.1172432e-04
-3.4712990e-04
-1.4043177e-04
1.0168160e-04
3.6898784e-04
6.4803127e-04
9.2276803e-04
1.1755117e-03
1.3881067e-03
1.5432438e-03
1.6258245e-03
1.6242718e-03
1.5316704e-03
1.3466056e-03
1.0735658e-03
7.2283149e-04
3.1000164e-04
-1.4465972e-04
-6.1719432e-04
-1.0813912e-03
-1.5106066e-03
-1.8797611e-03
-2.1672840e-03
-2.3567851e-03
-2.4382660e-03
-2.4087526e-03
-2.2723123e-03
-2.0394994e-03
-1.7263423e-03
-1.3530172e-03
-9.4235947e-04
-5.1834484e-04
-1.0464264e-04
2.7668437e-04
6.0628895e-04
8.6843552e-04
1.0516797e-03
1.1493348e-03
1.1597290e-03
1.0862527e-03
9.3718885e-04
7.2531702e-04
4.6728512e-04
1.8274958e-04
-1.0669954e-04
-3.7879675e-04
-6.1199317e-04
-7.8691257e-04
-8.8777905e-04
-9.0370308e-04
-8.2969882e-04
-6.6730532e-04
-4.2470003e-04
-1.1622952e-04
2.3865540e-04
6.1694107e-04
9.9377582e-04
1.3441602e-03
1.6446032e-03
1.8747039e-03
2.0185197e-03
2.0656094e-03
2.0116758e-03
1.8587737e-03
1.6150882e-03
1.2943161e-03
9.1470862e-04
4.9784921e-04
6.7245872e-05
-3.5317504e-04
-7.4058851e-04
-1.0747140e-03
-1.3390903e-03
-1.5220919e-03
-1.6176067e-03
-1.6253125e-03
-1.5505237e-03
-1.4036157e-03
-1.1990804e-03
-9.5429939e-04
-6.8814375e-04
-4.1951528e-04
-1.6593771e-04
5.7703899e-05
2.4018498e-04
3.7464340e-04
4.5889765e-04
4.9534473e-04
4.9043666e-04
4.5377318e-04
3.9689142e-04
3.3187822e-04
2.6996977e-04
2.2031991e-04
1.8910587e-04
1.7908279e-04
1.8953129e-04
2.1647858e-04
2.5322218e-04
2.9118792e-04
3.2102187e-04
3.3376673e-04
3.2197780e-04
2.8065358e-04
2.0788486e-04
1.0516087e-04
-2.2689123e-05
-1.6790012e-04
-3.2046775e-04
-4.6905785e-04
-6.0203667e-04
-7.0852592e-04
-7.7939090e-04
-8.0807639e-04
-7.9121710e-04
-7.2896681e-04
-6.2501447e-04
-4.8628398e-04
-3.2234461e-04
-1.4458769e-04
3.4754572e-05
2.0365997e-04
3.5134273e-04
4.6915773e-04
5.5128740e-04
5.9513046e-04
6.0134483e-04
5.7354514e-04
5.1770601e-04
4.4136045e-04
3.5270324e-04
2.5971525e-04
1.6941800e-04
8.7348733e-05
1.7324478e-05
-3.8550147e-05
-7.9811028e-05
-1.0753882e-04
-1.2410266e-04
-1.3269480e-04
-1.3672430e-04
-1.3916823e-04
-1.4198735e-04
-1.4570181e-04
-1.4919786e-04
-1.4980464e-04
-1.4364437e-04
-1.2622278e-04
-9.3189158e-05
-4.1165634e-05
3.1473859e-05
1.2399695e-04
2.3298640e-04
3.5236867e-04
4.7382091e-04
5.8751660e-04
6.8311006e-04
7.5082050e-04
7.8246756e-04
7.7232927e-04
7.1772878e-04
6.1929800e-04
4.8090942e-04
3.0930803e-04
1.1350735e-04
-9.5969760e-05
-3.0792238e-04
-5.1129894e-04
-6.9595653e-04
-8.5330095e-04
-9.7677161e-04
-1.0621513e-03
-1.1076953e-03
-1.1140864e-03
-1.0842420e-03
-1.0229660e-03
-9.3642097e-04
-8.3149971e-04
-7.1520519e-04
-5.9407842e-04
-4.7370688e-04
-3.5835584e-04
-2.5075605e-04
-1.5206126e-04
-6.1966047e-05
2.1043947e-05
9.9345483e-05
1.7577243e-04
2.5318764e-04
3.3406577e-04
4.2011777e-04
5.1198408e-04
6.0901886e-04
7.0918291e-04
8.0905787e-04
9.0398875e-04
9.8835469e-04
1.0559602e-03
1.1005287e-03
1.1162674e-03
1.0984560e-03
1.0439989e-03
9.5187834e-04
8.2344998e-04
6.6253811e-04
4.7530521e-04
2.6989619e-04
5.5885456e-05
-1.5642006e-04
-3.5675278e-04
-5.3565681e-04
-6.8519103e-04
-7.9950387e-04
-8.7523583e-04
-9.1173944e-04
-9.1115988e-04
-8.7834490e-04
-8.2045984e-04
-7.4631390e-04
-6.6551397e-04
-5.8753593e-04
-5.2079577e-04
-4.7181246e-04
-4.4455394e-04
-4.4004412e-04
-4.5628332e-04
-4.8849989e-04
-5.2970842e-04
-5.7150817e-04
-6.0502334e-04
-6.2186720e-04
-6.1500953e-04
-5.7944307e-04
-5.1258157e-04
-4.1436950e-04
-2.8713067e-04
-1.3521637e-04
3.5469521e-05
2.1799117e-04
4.0488380e-04
5.8859692e-04
7.6185823e-04
9.1795658e-04
1.0509559e-03
1.1558608e-03
1.2287561e-03
1.2669360e-03
1.2690222e-03
1.2350501e-03
1.1664925e-03
1.0661903e-03
9.3818113e-04
7.8744185e-04
6.1958051e-04
4.4051581e-04
2.5617150e-04
7.2201854e-05
-1.0624055e-04
-2.7467350e-04
-4.2936008e-04
-5.6729280e-04
-6.8612106e-04
-7.8405880e-04
-8.5980374e-04
-9.1248858e-04
-9.4166903e-04
-9.4733817e-04
-9.2994572e-04
-8.9040057e-04
-8.3004323e-04
-7.5058442e-04
-6.5401156e-04
-5.4246799e-04
-4.1811644e-04
-2.8300771e-04
-1.3898376e-04
1.2354354e-05
1.6958925e-04
3.3133037e-04
4.9596787e-04
6.6137383e-04
8.2460905e-04
9.8170080e-04
1.1275458e-03
1.2559716e-03
1.3599698e-03
1.4320974e-03
1.4650255e-03
1.4521929e-03
1.3884981e-03
1.2709493e-03
1.0991907e-03
8.7583655e-04
6.0655946e-04
2.9990846e-04
-3.3155310e-05
-3.7988616e-04
-7.2634233e-04
-1.0579585e-03
-1.3602301e-03
-1.6195198e-03
-1.8239291e-03
-1.9641492e-03
-2.0341863e-03
-2.0318561e-03
-1.9589596e-03
-1.8210897e-03
-1.6270709e-03
-1.3880945e-03
-1.1166607e-03
-8.2546962e-04
-5.2640537e-04
-2.2973852e-04
5.6363456e-05
3.2597370e-04
5.7519812e-04
8.0168073e-04
1.0039269e-03
1.1805808e-03
1.3298004e-03
1.4488601e-03
1.5340659e-03
1.5810123e-03
1.5851412e-03
1.5425074e-03
1.4506127e-03
1.3091606e-03
1.1206007e-03
8.9036927e-04
6.2678996e-04
3.4064963e-04
4.4513850e-05
-2.4812613e-04
-5.2377099e-04
-7.6979021e-04
-9.7523919e-04
-1.1316220e-03
-1.2334587e-03
-1.2785457e-03
-1.2679412e-03
-1.2057335e-03
-1.0986416e-03
-9.5549169e-04
-7.8660481e-04
-6.0312526e-04
-4.1631737e-04
-2.3685915e-04
-7.4167959e-05
6.4198371e-05
1.7301594e-04
2.4969794e-04
2.9439068e-04
3.0984304e-04
3.0105068e-04
2.7469932e-04
2.3845737e-04
2.0019224e-04
1.6719833e-04
1.4552082e-04
1.3944158e-04
1.5116860e-04
1.8074284e-04
2.2614965e-04
2.8359909e-04
3.4792570e-04
4.1305702e-04
4.7250988e-04
5.1988788e-04
5.4936434e-04
5.5613675e-04
5.3683349e-04
4.8984615e-04
4.1555501e-04
3.1641382e-04
1.9686767e-04
6.3066004e-05
-7.7607907e-05
-2.1708234e-04
-3.4717815e-04
-4.6022948e-04
-5.4969520e-04
-6.1069304e-04
-6.4039306e-04
-6.3822699e-04
-6.0589780e-04
-5.4719773e-04
-4.6765682e-04
-3.7405103e-04
-2.7380614e-04
-1.7434327e-04
-8.2422750e-05
-3.5499797e-06
5.8494089e-05
1.0194371e-04
1.2712318e-04
1.3629158e-04
1.3327044e-04
1.2289377e-04
1.1034422e-04
1.0045749e-04
9.7087398e-05
1.0262026e-04
1.1770869e-04
1.4126228e-04
1.7069110e-04
2.0235530e-04
2.3214207e-04
2.5607570e-04
2.7087007e-04
2.7435044e-04
2.6569872e-04
2.4550992e-04
2.1567973e-04
1.7916720e-04
1.3969451e-04
1.0139001e-04
6.8309439e-05
4.3894037e-05
3.0531905e-05
2.9288097e-05
3.9797267e-05
6.0312691e-05
8.7893304e-05
1.1870078e-04
1.4837190e-04
1.7242732e-04
1.8667651e-04
1.8758127e-04
1.7254668e-04
1.4011894e-04
9.0082687e-05
2.3463912e-05
-5.7545723e-05
-1.4972525e-04
-2.4900734e-04
-3.5069799e-04
-4.4972508e-04
-5.4090816e-04
-6.1924287e-04
-6.8019406e-04
-7.1998899e-04
-7.3589421e-04
-7.2645005e-04
-6.9163112e-04
-6.3290426e-04
-5.5316397e-04
-4.5653671e-04
-3.4805842e-04
-2.3324704e-04
-1.1761351e-04
-6.1722107e-06
9.6982144e-05
1.8897279e-04
2.6827566e-04
3.3467860e-04
3.8908460e-04
4.3319582e-04
4.6912336e-04
4.9897515e-04
5.2446915e-04
5.4661145e-04
5.6547464e-04
5.8010510e-04
5.8857971e-04
5.8821595e-04
5.7591759e-04
5.4861604e-04
5.0375222e-04
4.3973685e-04
3.5632779e-04
2.5487168e-04
1.3837314e-04
1.1376137e-05
-1.2033385e-04
-2.5017496e-04
-3.7131219e-04
-4.7724081e-04
-5.6234980e-04
-6.2240744e-04
-6.5491455e-04
-6.5928047e-04
-6.3679366e-04
-5.9038467e-04
-5.2420984e-04
-4.4311290e-04
-3.5204134e-04
-2.5550095e-04
-1.5712290e-04
-5.9396854e-05
3.6402494e-05
1.3009372e-04
2.2229295e-04
3.1398669e-04
4.0603581e-04
4.9869038e-04
5.9119567e-04
6.8151179e-04
7.6615513e-04
8.4023069e-04
8.9769840e-04
9.3185148e-04
9.3595949e-04
9.0400701e-04
8.3144561e-04
7.1587376e-04
5.5756693e-04
3.5979495e-04
1.2888371e-04
-1.2599819e-04
-3.9332247e-04
-6.5992223e-04
-9.1189159e-04
-1.1355793e-03
-1.3185780e-03
-1.4506156e-03
-1.5242728e-03
-1.5354736e-03
-1.4837206e-03
-1.3720645e-03
-1.2068188e-03
-9.9704462e-04
-7.5385174e-04
-4.8957955e-04
-2.1693771e-04
5.1810468e-05
3.0554611e-04
5.3481767e-04
7.3215892e-04
8.9220360e-04
1.0116279e-03
1.0889721e-03
1.1244015e-03
1.1194604e-03
1.0768607e-03
1.0003523e-03
8.9465535e-04
7.6532028e-04
6.1848297e-04
4.6060690e-04
2.9825307e-04
1.3786386e-04
-1.4451411e-05
-1.5313595e-04
-2.7340849e-04
-3.7147926e-04
-4.4474089e-04
-4.9191079e-04
-5.1310023e-04
-5.0978960e-04
-4.8470023e-04
-4.4156740e-04
-3.8483314e-04
-3.1928814e-04
-2.4970125e-04
-1.8047626e-04
-1.1537038e-04
-5.7297137e-05
-8.2250046e-06
3.0828862e-05
5.9719866e-05
7.9030899e-05
8.9885535e-05
9.3746387e-05
9.2223288e-05
8.6909678e-05
7.9257651e-05
7.0494884e-05
6.1581116e-05
5.3197728e-05
4.5761911e-05
3.9457369e-05
3.4275733e-05
3.0065052e-05
2.6582286e-05
