-9.1832812e-02
-8.6592933e-02
-8.1718318e-02
-8.4451437e-02
-9.1327800e-02
-9.4976099e-02
-8.7296074e-02
-6.3362657e-02
-2.5536891e-02
2.3747987e-02
7.3933775e-02
1.1457013e-01
1.4091698e-01
1.5003375e-01
1.4795830e-01
1.4237378e-01
1.4291285e-01
1.5405885e-01
1.7045754e-01
1.8953296e-01
2.0555961e-01
2.1680355e-01
2.2659241e-01
2.3482520e-01
2.4025439e-01
2.4606951e-01
2.6724800e-01
3.0281080e-01
3.3481900e-01
3.5466809e-01
3.6067197e-01
3.6142914e-01
3.6610030e-01
3.7663510e-01
3.8831965e-01
3.8261504e-01
3.5145398e-01
3.0486496e-01
2.5762406e-01
2.2317396e-01
2.0003464e-01
1.8319592e-01
1.6776699e-01
1.5036998e-01
1.3705382e-01
1.2916703e-01
1.2740620e-01
1.2703454e-01
1.1508209e-01
8.4033969e-02
3.6902161e-02
-2.8304467e-03
-1.2790884e-02
1.5705991e-02
8.5798718e-02
1.9054968e-01
3.2531287e-01
4.8257353e-01
6.4892873e-01
8.1377350e-01
9.6314909e-01
1.0870139e+00
1.1723240e+00
1.2061408e+00
1.1877645e+00
1.1184554e+00
1.0049403e+00
8.5430930e-01
6.7858704e-01
5.0311771e-01
3.5189606e-01
2.4320158e-01
1.7702754e-01
1.3650962e-01
9.8203711e-02
5.3612497e-02
2.3121663e-02
1.0545917e-02
6.1959944e-03
7.0952948e-03
4.3510685e-03
-5.1114704e-03
-2.4800807e-02
-5.6705884e-02
-9.3573515e-02
-1.3062129e-01
-1.6143038e-01
-1.8612554e-01
-2.1041153e-01
-2.3657869e-01
-2.6849889e-01
-3.0482429e-01
-3.4371310e-01
-3.7829280e-01
-3.9690597e-01
-3.9525561e-01
-3.6820352e-01
-3.1937937e-01
-2.5993075e-01
-1.9261997e-01
-1.1782978e-01
-3.8300965e-02
3.9751441e-02
1.1532257e-01
1.9139123e-01
2.6684628e-01
3.4246345e-01
4.1218921e-01
4.6728414e-01
5.0031613e-01
5.0249525e-01
4.7325838e-01
4.1168136e-01
3.2168179e-01
2.1286117e-01
9.7636134e-02
-1.9777916e-03
-7.8123421e-02
-1.3883392e-01
-1.9526203e-01
-2.5140306e-01
-2.9286728e-01
-3.0906054e-01
-2.9572038e-01
-2.5450903e-01
-1.9762169e-01
-1.3096646e-01
-6.0028836e-02
1.0050368e-02
7.2003500e-02
1.1450539e-01
1.3856627e-01
1.4855350e-01
1.4833004e-01
1.3817780e-01
1.1410224e-01
7.8674377e-02
3.2750563e-02
-2.0583114e-02
-8.0963367e-02
-1.5461678e-01
-2.4209843e-01
-3.4292998e-01
-4.4836985e-01
-5.4998682e-01
-6.4630447e-01
-7.3102258e-01
-7.9746953e-01
-8.3221177e-01
-8.2783712e-01
-7.9834106e-01
-7.6544854e-01
-7.4469491e-01
-7.3571177e-01
-7.3752805e-01
-7.5286306e-01
-7.7892985e-01
-8.1462235e-01
-8.5008242e-01
-8.7540556e-01
-8.9012000e-01
-8.9452787e-01
-8.9384107e-01
-8.8642210e-01
-8.7032286e-01
-8.4718893e-01
-8.1520767e-01
-7.7820266e-01
-7.3455666e-01
-6.8372445e-01
-6.2910407e-01
-5.6769017e-01
-4.9940761e-01
-4.1973534e-01
-3.2252583e-01
-2.1534568e-01
-1.1611557e-01
-3.5827121e-02
3.0897493e-02
8.7657242e-02
1.3470906e-01
1.7443450e-01
2.0486508e-01
2.2981738e-01
2.5256845e-01
2.7175150e-01
2.8464392e-01
2.8728657e-01
2.8534522e-01
2.8141045e-01
2.7544813e-01
2.7050416e-01
2.6521357e-01
2.6225387e-01
2.5992874e-01
2.5489273e-01
2.4687596e-01
2.3010810e-01
2.0211698e-01
1.5575897e-01
9.8550331e-02
5.6698320e-02
3.5688542e-02
3.1982094e-02
4.0145054e-02
5.4612201e-02
7.4013979e-02
9.3300472e-02
1.1489094e-01
1.3954751e-01
1.6528783e-01
1.9133632e-01
2.1459085e-01
2.3899687e-01
2.6310905e-01
2.8192690e-01
2.9300990e-01
2.9359259e-01
2.8953800e-01
2.8297744e-01
2.7339036e-01
2.6134276e-01
2.4494260e-01
2.2881347e-01
2.1503486e-01
2.0360157e-01
1.9152807e-01
1.7444801e-01
1.5810797e-01
1.4376195e-01
1.3067822e-01
1.1686527e-01
9.8163060e-02
7.9919371e-02
6.3313995e-02
4.8370635e-02
3.2814936e-02
1.0154589e-02
-1.6137677e-02
-4.3905039e-02
-7.0572766e-02
-9.5739589e-02
-1.2323885e-01
-1.4884926e-01
-1.7145313e-01
-1.8909905e-01
-2.0212914e-01
-2.1677800e-01
-2.3072105e-01
-2.4157085e-01
-2.4572047e-01
-2.4453862e-01
-2.4613899e-01
-2.4906017e-01
-2.5184403e-01
-2.5248448e-01
-2.5242916e-01
-2.5888161e-01
-2.7090697e-01
-2.8548969e-01
-2.9610474e-01
-3.0066378e-01
-3.0308387e-01
-3.0028354e-01
-2.8968727e-01
-2.6540452e-01
-2.2592821e-01
-1.7755608e-01
-1.2489436e-01
-7.6757399e-02
-3.5758977e-02
-3.1958988e-03
1.9000804e-02
3.6223488e-02
5.4289276e-02
7.9527019e-02
1.0552732e-01
1.2641952e-01
1.4699448e-01
1.6440339e-01
1.7870605e-01
1.8839571e-01
1.9120980e-01
1.9334031e-01
1.9571339e-01
1.9991095e-01
2.0374375e-01
2.0243051e-01
1.9863524e-01
1.9513090e-01
2.0200264e-01
2.2469727e-01
2.5878181e-01
2.9808028e-01
3.3132482e-01
3.5406173e-01
3.6152826e-01
3.4860736e-01
3.1425057e-01
2.5005625e-01
1.6985197e-01
1.0441228e-01
6.3544121e-02
4.4044229e-02
4.0191610e-02
5.0152645e-02
7.0418525e-02
9.6787897e-02
1.2653631e-01
1.5210834e-01
1.7065259e-01
1.7680353e-01
1.6760378e-01
1.4435559e-01
1.0199765e-01
3.9854087e-02
-4.3584903e-02
-1.4594338e-01
-2.5833314e-01
-3.7366689e-01
-4.7868245e-01
-5.6469131e-01
-6.2426752e-01
-6.4970573e-01
-6.4010300e-01
-6.0082745e-01
-5.5275039e-01
-5.0587496e-01
-4.5616733e-01
-4.0708179e-01
-3.6021869e-01
-3.1974429e-01
-2.8795488e-01
-2.6300351e-01
-2.4506222e-01
-2.2665442e-01
-2.0114661e-01
-1.6174238e-01
-1.0105776e-01
-1.9056902e-02
8.2310775e-02
1.9249766e-01
3.0239250e-01
4.0940577e-01
5.0852422e-01
5.9535523e-01
6.5691615e-01
6.7499900e-01
6.3196794e-01
5.1186938e-01
3.4540799e-01
2.0206362e-01
1.1334235e-01
6.7201338e-02
4.9080569e-02
5.3507613e-02
7.2520570e-02
1.0141572e-01
1.3611475e-01
1.7202053e-01
2.1331025e-01
2.5821097e-01
3.0519067e-01
3.5058175e-01
3.8552872e-01
4.0770826e-01
4.1288889e-01
4.0091615e-01
3.7055599e-01
3.1762441e-01
2.4666765e-01
1.6374292e-01
8.1710922e-02
9.7291832e-03
-4.9923872e-02
-9.4971361e-02
-1.3207478e-01
-1.6138234e-01
-1.8254642e-01
-2.0136225e-01
-2.1912020e-01
-2.3672910e-01
-2.4851567e-01
-2.5311337e-01
-2.5603855e-01
-2.5903832e-01
-2.6375984e-01
-2.6504056e-01
-2.6017703e-01
-2.5133783e-01
-2.4021479e-01
-2.3040649e-01
-2.1723460e-01
-2.0027364e-01
-1.8426744e-01
-1.7075902e-01
-1.6196048e-01
-1.4996910e-01
-1.2849705e-01
-9.4892909e-02
-5.6341533e-02
-3.6231297e-02
-3.7509083e-02
-5.2591949e-02
-7.9081202e-02
-1.1292445e-01
-1.5343857e-01
-1.9275844e-01
-2.2523838e-01
-2.5109589e-01
-2.7216901e-01
-2.9451766e-01
-3.1468891e-01
-3.2906359e-01
-3.3648424e-01
-3.3526597e-01
-3.2719350e-01
-3.0448510e-01
-2.6096273e-01
-1.9750777e-01
-1.2024228e-01
-4.2400300e-02
2.7015141e-02
7.5983102e-02
9.2930476e-02
8.5334100e-02
7.5393264e-02
7.7001066e-02
8.8515353e-02
1.1001830e-01
1.3971154e-01
1.7091864e-01
2.0442148e-01
2.3880427e-01
2.7135465e-01
2.9755013e-01
3.1058473e-01
3.1231394e-01
3.0294869e-01
2.8480301e-01
2.6020575e-01
2.2804618e-01
1.9356802e-01
1.5706312e-01
1.1979477e-01
8.2099916e-02
3.7451941e-02
-1.5854633e-02
-8.2853404e-02
-1.6620936e-01
-2.5794402e-01
-3.4378952e-01
-4.1230139e-01
-4.6443904e-01
-5.0026645e-01
-5.2126990e-01
-5.3164063e-01
-5.2759600e-01
-5.0951881e-01
-4.7937643e-01
-4.4109427e-01
-3.9937797e-01
-3.5143288e-01
-3.0064620e-01
-2.5006774e-01
-2.0189218e-01
-1.5954032e-01
-1.2002809e-01
-8.4455105e-02
-5.1074520e-02
-1.6916644e-02
2.0973122e-02
7.3752733e-02
1.5143978e-01
2.6806592e-01
4.0925198e-01
5.3193056e-01
6.2472855e-01
6.9600307e-01
7.5341583e-01
7.9891924e-01
8.3045740e-01
8.5170531e-01
8.6059229e-01
8.5564855e-01
8.3147031e-01
7.8134338e-01
7.0806977e-01
6.1433304e-01
5.0992672e-01
4.0371638e-01
2.9866264e-01
1.9811920e-01
1.0112495e-01
1.2079768e-02
-6.9557332e-02
-1.4948739e-01
-2.2652158e-01
-2.9895785e-01
-3.6061670e-01
-4.0808867e-01
-4.3876617e-01
-4.4717347e-01
-4.3264039e-01
-3.9476618e-01
-3.4519062e-01
-3.0132875e-01
-2.7297698e-01
-2.6402623e-01
-2.6490137e-01
-2.6576008e-01
-2.6026700e-01
-2.4460246e-01
-2.2287496e-01
-1.9731457e-01
-1.7316678e-01
-1.5142056e-01
-1.2651523e-01
-9.6914286e-02
-5.9668388e-02
-1.8857725e-02
2.1243422e-02
5.9133330e-02
8.9491113e-02
1.1158641e-01
1.2904997e-01
1.5495839e-01
1.9140593e-01
2.2775256e-01
2.6696485e-01
3.1043304e-01
3.5709340e-01
4.0464755e-01
4.4627834e-01
4.8431289e-01
5.1912636e-01
5.5114172e-01
5.8074800e-01
6.0432432e-01
6.2652004e-01
6.4891654e-01
6.7104956e-01
6.8931071e-01
6.9282751e-01
6.7420032e-01
6.2382457e-01
5.3731906e-01
4.1208408e-01
2.4213045e-01
2.8402691e-02
-2.1405550e-01
-4.4952987e-01
-6.5937011e-01
-8.5022617e-01
-1.0261070e+00
-1.1910924e+00
-1.3429039e+00
-1.4829407e+00
-1.6198654e+00
-1.7550478e+00
-1.8895108e+00
-2.0187062e+00
-2.1379949e+00
-2.2428030e+00
-2.3212524e+00
-2.3683442e+00
-2.3768991e+00
-2.3403138e+00
-2.2584743e+00
-2.1340780e+00
-1.9800231e+00
-1.8007832e+00
-1.5915609e+00
-1.3430250e+00
-1.0378116e+00
-6.9573019e-01
-3.6778548e-01
-8.0567805e-02
1.6414397e-01
3.7081987e-01
5.4173020e-01
6.8406287e-01
8.0111934e-01
8.8796345e-01
9.4229663e-01
9.6196043e-01
9.5505778e-01
9.3239246e-01
9.0369659e-01
8.8012936e-01
8.6314714e-01
8.5245167e-01
8.4349497e-01
8.3205778e-01
8.1995825e-01
8.0771939e-01
7.9992867e-01
7.9223600e-01
7.7645909e-01
7.4885626e-01
7.0719227e-01
6.6260063e-01
6.2167239e-01
5.8869614e-01
5.7206843e-01
5.7058771e-01
5.8351514e-01
6.0493107e-01
6.2966418e-01
6.5721327e-01
6.8083080e-01
6.9662696e-01
6.9481995e-01
6.6928286e-01
6.2854386e-01
5.8556671e-01
5.5822110e-01
5.5015263e-01
5.5255456e-01
5.5584033e-01
5.5150034e-01
5.4307955e-01
5.3207125e-01
5.1774715e-01
4.9936136e-01
4.6979064e-01
4.2864647e-01
3.7840038e-01
3.2342753e-01
2.6586577e-01
2.0266022e-01
1.3708363e-01
6.8278632e-02
-3.7725987e-03
-7.5590069e-02
-1.4421338e-01
-2.0033257e-01
-2.4481610e-01
-2.8494133e-01
-3.2950891e-01
-3.8675835e-01
-4.5067313e-01
-5.1397899e-01
-5.6640569e-01
-5.9984865e-01
-6.1112099e-01
-5.8738474e-01
-5.2110556e-01
-4.0665747e-01
-2.3992375e-01
-5.1081852e-02
1.0965220e-01
2.2251115e-01
2.9890486e-01
3.4798418e-01
3.7711066e-01
4.0067411e-01
4.2427999e-01
4.4975657e-01
4.7383948e-01
4.8738556e-01
4.8985661e-01
4.7973029e-01
4.5658144e-01
4.1653764e-01
3.5367180e-01
2.7430636e-01
1.8669677e-01
1.0155746e-01
2.4372679e-02
-4.4634996e-02
-1.0099626e-01
-1.4578507e-01
-1.7723044e-01
-1.9758615e-01
-2.1366216e-01
-2.2411818e-01
-2.2987393e-01
-2.2747339e-01
-2.1669300e-01
-2.0303896e-01
-1.8659130e-01
-1.7069878e-01
-1.5230565e-01
-1.2839152e-01
-1.0038658e-01
-6.5465652e-02
-2.4191175e-02
2.6912620e-02
8.5372117e-02
1.4053263e-01
1.8489594e-01
2.1002872e-01
2.1809742e-01
2.1185283e-01
1.9177906e-01
1.6398731e-01
1.2980278e-01
9.6444789e-02
6.7600291e-02
4.2364225e-02
2.6256245e-02
1.6354372e-02
9.9993190e-03
3.9617714e-03
-6.0879125e-03
-2.0434239e-02
-4.3753775e-02
-7.3566363e-02
-1.0615992e-01
-1.3869018e-01
-1.6678979e-01
-1.9304864e-01
-2.1562558e-01
-2.3440424e-01
-2.5085841e-01
-2.6534591e-01
-2.8374761e-01
-3.0598577e-01
-3.3351704e-01
-3.6712909e-01
-4.0415771e-01
-4.4664727e-01
-4.9040678e-01
-5.3489524e-01
-5.7908260e-01
-6.1645413e-01
-6.4629130e-01
-6.6498710e-01
-6.7469979e-01
-6.7778706e-01
-6.7256064e-01
-6.6213335e-01
-6.4288444e-01
-6.1447157e-01
-5.7762718e-01
-5.3128395e-01
-4.7957877e-01
-4.2000934e-01
-3.5289226e-01
-2.7817039e-01
-1.9326815e-01
-9.9997544e-02
5.5628595e-03
1.2146629e-01
2.4330185e-01
3.6896610e-01
4.9334796e-01
6.1745340e-01
7.3889403e-01
8.5115445e-01
9.4568651e-01
1.0167265e+00
1.0700303e+00
1.1073969e+00
1.1301907e+00
1.1400733e+00
1.1362688e+00
1.1247873e+00
1.1073772e+00
1.0865446e+00
1.0632165e+00
1.0336296e+00
1.0016574e+00
9.6719061e-01
9.3059560e-01
8.9151628e-01
8.4679830e-01
8.0241103e-01
7.6105721e-01
7.2493547e-01
6.9334630e-01
6.5894627e-01
6.1899014e-01
5.6871621e-01
5.0978478e-01
4.4547226e-01
3.7400553e-01
2.9906468e-01
2.1884927e-01
1.3107466e-01
3.2278420e-02
-8.1508515e-02
-2.0283050e-01
-3.2372536e-01
-4.3362085e-01
-5.2707944e-01
-6.0776631e-01
-6.7487394e-01
-7.2758937e-01
-7.6126545e-01
-7.7479197e-01
-7.7337396e-01
-7.5855842e-01
-7.3282393e-01
-6.9368227e-01
-6.4197357e-01
-5.8286877e-01
-5.1595534e-01
-4.3925145e-01
-3.5230021e-01
-2.6865417e-01
-1.9812840e-01
-1.3752933e-01
-8.6961855e-02
-4.0194159e-02
6.1584437e-03
4.9090042e-02
8.7589149e-02
1.1807161e-01
1.4485214e-01
1.7076290e-01
1.9284162e-01
2.0896725e-01
2.1381169e-01
2.1172629e-01
2.0754607e-01
2.0121843e-01
1.9334978e-01
1.8000958e-01
1.6460597e-01
1.4985691e-01
1.3220884e-01
1.0589755e-01
5.9243754e-02
-1.5073475e-03
-5.8587569e-02
-1.0801019e-01
-1.5429102e-01
-2.0266815e-01
-2.4910312e-01
-2.8839629e-01
-3.1680416e-01
-3.3109566e-01
-3.3402157e-01
-3.2397558e-01
-3.0160695e-01
-2.6787306e-01
-2.2392348e-01
-1.7690138e-01
-1.2698339e-01
-7.4988723e-02
-2.3717974e-02
2.3032140e-02
5.9136717e-02
8.5711218e-02
9.8302893e-02
9.0456635e-02
5.6494981e-02
-1.3153509e-02
-1.0375549e-01
-1.8644346e-01
-2.4838386e-01
-2.9059750e-01
-3.1740500e-01
-3.2775115e-01
-3.2484463e-01
-3.1148726e-01
-2.8964502e-01
-2.6573816e-01
-2.3892987e-01
-2.1181523e-01
-1.8755023e-01
-1.6746165e-01
-1.5392743e-01
-1.4126500e-01
-1.2909461e-01
-1.1851738e-01
-1.0844605e-01
-9.9805729e-02
-8.8068126e-02
-7.2610148e-02
-5.2300299e-02
-2.4261647e-02
1.3761210e-02
6.0415309e-02
1.0073540e-01
1.2948569e-01
1.4821290e-01
1.5527411e-01
1.5676376e-01
1.5643966e-01
1.5717980e-01
1.5507373e-01
1.4432243e-01
1.2991294e-01
1.1166351e-01
8.9324381e-02
6.1287946e-02
2.4375650e-02
-1.4182879e-02
-4.9974812e-02
-7.9426549e-02
-1.0298981e-01
-1.2442551e-01
-1.3966055e-01
-1.4803652e-01
-1.4770336e-01
-1.4204943e-01
-1.3979261e-01
-1.3924698e-01
-1.3897703e-01
-1.3642342e-01
-1.3307178e-01
-1.3390892e-01
-1.3512811e-01
-1.3383339e-01
-1.2519971e-01
-1.0906717e-01
-9.0372263e-02
-6.7358941e-02
-3.9843525e-02
-6.2251277e-03
2.9992741e-02
6.1773484e-02
9.0110419e-02
1.1526261e-01
1.4074644e-01
1.6645132e-01
1.8700973e-01
2.0185540e-01
2.1094310e-01
2.1926150e-01
2.2727243e-01
2.3135393e-01
2.3116352e-01
2.2415117e-01
2.1441386e-01
2.0108966e-01
1.7861090e-01
1.4815526e-01
1.0929733e-01
6.6826355e-02
2.3637163e-02
-1.9822193e-02
-6.0011683e-02
-9.7899288e-02
-1.2904387e-01
-1.5158771e-01
-1.6773004e-01
-1.7820605e-01
-1.8835260e-01
-1.9556247e-01
-1.9800860e-01
-1.9812613e-01
-1.9516604e-01
-1.9161986e-01
-1.8414912e-01
-1.6919798e-01
-1.4420683e-01
-1.1192158e-01
-8.7226330e-02
-7.1671666e-02
-6.0309713e-02
-5.0879042e-02
-4.0896622e-02
-3.3499341e-02
-2.7349790e-02
-2.2743885e-02
-1.9540610e-02
-1.4779612e-02
-1.0705198e-02
-6.7279976e-03
-4.2358030e-03
-3.2465166e-03
-2.2426522e-03
-4.0175184e-03
-5.9433651e-03
-7.6127246e-03
-8.2420685e-03
-6.5093895e-03
-6.2522844e-03
-7.1043926e-03
-1.3256619e-02
-2.6250896e-02
-4.2821078e-02
-6.3256406e-02
-8.2450365e-02
-9.9733882e-02
-1.1383841e-01
-1.2085974e-01
-1.2273038e-01
-1.1923886e-01
-1.1483261e-01
-1.1124385e-01
-1.0514776e-01
-9.4936169e-02
-7.3484974e-02
-3.8564376e-02
1.0377892e-02
7.5022312e-02
1.5276409e-01
2.3812208e-01
3.1258513e-01
3.5948800e-01
3.7292616e-01
3.5172670e-01
3.0108333e-01
2.1783070e-01
9.5554951e-02
-4.3755789e-02
-1.5370734e-01
-2.1391893e-01
-2.3712479e-01
-2.3358628e-01
-2.1396974e-01
-1.9061257e-01
-1.6740059e-01
-1.5151993e-01
-1.4742854e-01
-1.5628849e-01
-1.7695648e-01
-1.9950813e-01
-2.1994968e-01
-2.3539395e-01
-2.4655423e-01
-2.5845645e-01
-2.6775275e-01
-2.7346662e-01
-2.7259053e-01
-2.6321187e-01
-2.4578266e-01
-2.1174907e-01
-1.5306687e-01
-5.6729894e-02
6.4253866e-02
1.6572003e-01
2.3233384e-01
2.7020144e-01
2.8841488e-01
2.9087551e-01
2.7388157e-01
2.4210519e-01
2.0086555e-01
1.5849458e-01
1.1895065e-01
8.0590797e-02
4.6410734e-02
1.7103201e-02
-1.3695266e-03
-7.2660748e-03
-6.6873292e-03
-1.9936246e-03
3.7475958e-03
1.3984599e-02
2.9323175e-02
4.4605551e-02
5.8337712e-02
6.9033091e-02
8.2369213e-02
9.8724921e-02
1.1213243e-01
1.2093529e-01
1.2284206e-01
1.2382119e-01
1.2647420e-01
1.2841939e-01
1.3021406e-01
1.2897548e-01
1.3063189e-01
1.3937520e-01
1.5352680e-01
1.7246089e-01
1.9157532e-01
2.1330901e-01
2.3637839e-01
2.5521685e-01
2.6742942e-01
2.6709117e-01
2.5650209e-01
2.3764551e-01
2.0978545e-01
1.7434254e-01
1.2888523e-01
7.8423707e-02
2.7387069e-02
-2.2835094e-02
-7.0363211e-02
-1.1709110e-01
-1.5857414e-01
-1.9327210e-01
-2.2195983e-01
-2.4482544e-01
-2.6643118e-01
-2.8374748e-01
-2.9443348e-01
-2.9716622e-01
-2.9054112e-01
-2.7872824e-01
-2.6111768e-01
-2.3945209e-01
-2.1470034e-01
-1.8674323e-01
-1.5929005e-01
-1.2849964e-01
-9.3837155e-02
-5.5270882e-02
-1.1305904e-02
3.6214674e-02
9.3093189e-02
1.5198072e-01
1.9693928e-01
2.2424401e-01
2.3521298e-01
2.3770508e-01
2.3495721e-01
2.2880702e-01
2.2130297e-01
2.1019547e-01
2.0085945e-01
1.9266503e-01
1.8268376e-01
1.7116561e-01
1.5544644e-01
1.3849274e-01
1.1976594e-01
9.8719909e-02
7.6218089e-02
5.1594570e-02
3.1030573e-02
1.5027758e-02
2.4165267e-04
-1.7989742e-02
-4.4113636e-02
-7.4015509e-02
-1.0328669e-01
-1.2508093e-01
-1.3967796e-01
-1.5288485e-01
-1.6168157e-01
-1.6616098e-01
-1.6595052e-01
-1.6421019e-01
-1.6673100e-01
-1.6803934e-01
-1.6648197e-01
-1.6189278e-01
-1.5658199e-01
-1.5568619e-01
-1.5547302e-01
-1.5578608e-01
-1.5529598e-01
-1.5544881e-01
-1.6083919e-01
-1.6551417e-01
-1.6610947e-01
-1.5829155e-01
-1.4190232e-01
-1.2309232e-01
-9.9346299e-02
-7.1828509e-02
-4.3658748e-02
-1.9812045e-02
-6.7321341e-03
-2.4950350e-03
-6.4409555e-03
-1.4506042e-02
-2.5235526e-02
-4.1670624e-02
-5.9525361e-02
-7.6620916e-02
-8.7998645e-02
-9.2324451e-02
-9.4688975e-02
-9.4299373e-02
-9.0286801e-02
-7.6334350e-02
-5.0000606e-02
-1.4964553e-02
2.9359432e-02
7.8733846e-02
1.2718577e-01
1.5581113e-01
1.3676226e-01
5.1355550e-02
-7.3106870e-02
-1.6125963e-01
-1.8983933e-01
-1.8317698e-01
-1.5268828e-01
-1.0674488e-01
-4.6259188e-02
2.6512008e-02
1.0593084e-01
1.9336980e-01
2.8809361e-01
3.8829468e-01
4.8354234e-01
5.6091834e-01
6.1624262e-01
6.4711257e-01
6.6186083e-01
6.6645102e-01
6.5759551e-01
6.3267740e-01
5.8806776e-01
5.2985202e-01
4.6149896e-01
3.7646986e-01
2.6626033e-01
1.3562629e-01
1.6088507e-02
-7.6279444e-02
-1.4792176e-01
-2.0420081e-01
-2.5302979e-01
-2.9809805e-01
-3.4434583e-01
-3.9256251e-01
-4.3563419e-01
-4.6543106e-01
-4.6770136e-01
-4.4029835e-01
-3.9187965e-01
-3.3214630e-01
-2.7385857e-01
-2.1918582e-01
-1.6822594e-01
-1.1850692e-01
-6.4358152e-02
-8.5504133e-03
4.4618946e-02
8.3838649e-02
1.0122691e-01
9.8065542e-02
7.9139600e-02
5.6793080e-02
3.1522932e-02
1.3069438e-03
-2.9993895e-02
-6.2470145e-02
-9.0737238e-02
-1.1484858e-01
-1.3614729e-01
-1.5239542e-01
-1.6537607e-01
-1.7264442e-01
-1.7711519e-01
-1.8388897e-01
-1.9608439e-01
-2.1691852e-01
-2.4013690e-01
-2.6050496e-01
-2.7190498e-01
-2.6676831e-01
-2.4129006e-01
-1.8868455e-01
-1.0740272e-01
4.2130275e-03
1.4817766e-01
2.9887367e-01
4.1225009e-01
4.6846074e-01
4.7706802e-01
4.4794055e-01
3.8782626e-01
3.1151249e-01
2.3029024e-01
1.5375536e-01
8.6901266e-02
2.8074410e-02
-2.1661929e-02
-6.7405226e-02
-1.1189633e-01
-1.5802868e-01
-2.1126813e-01
-2.6781849e-01
-3.2405736e-01
-3.7294598e-01
-4.1105268e-01
-4.3909791e-01
-4.4748893e-01
-4.2882663e-01
-3.7473007e-01
-2.8053485e-01
-1.6652780e-01
-6.3319406e-02
1.5963600e-02
7.8143348e-02
1.2686904e-01
1.5885707e-01
1.7603055e-01
1.8129689e-01
1.8258261e-01
1.8481114e-01
1.8699356e-01
1.9237543e-01
2.0049387e-01
2.1228879e-01
2.2674783e-01
2.3901257e-01
2.4795178e-01
2.5274442e-01
2.5894109e-01
2.6772610e-01
2.7373847e-01
2.7489704e-01
2.6893641e-01
2.5973963e-01
2.4799299e-01
2.3158973e-01
2.1195571e-01
1.8813403e-01
1.6727078e-01
1.5359340e-01
1.4530446e-01
1.4157963e-01
1.3688536e-01
1.3361763e-01
1.3342460e-01
1.3163441e-01
1.2420077e-01
1.0553042e-01
7.9676076e-02
5.0599923e-02
1.7932249e-02
-1.7235266e-02
-5.5940106e-02
-9.0992013e-02
-1.1569119e-01
-1.2871159e-01
-1.3151159e-01
-1.3105548e-01
-1.2734333e-01
-1.1958658e-01
-1.0970125e-01
-1.0093050e-01
-9.9459160e-02
-1.0260569e-01
-1.0617232e-01
-1.0667900e-01
-1.0193423e-01
-9.6678531e-02
-9.1076551e-02
-8.4865844e-02
-7.9312692e-02
-7.7476083e-02
-8.2309192e-02
-8.6435625e-02
-8.5836312e-02
-7.8658176e-02
-6.4551079e-02
-4.8760481e-02
-3.0359735e-02
-1.1911349e-02
4.6096874e-03
2.0024780e-02
3.2394885e-02
4.5793947e-02
6.1474841e-02
7.9949466e-02
9.8470581e-02
1.1083570e-01
1.2056618e-01
1.2905659e-01
1.3854088e-01
1.5055882e-01
1.6228908e-01
1.7864731e-01
2.0021696e-01
2.2614581e-01
2.5632101e-01
2.8787263e-01
3.2297653e-01
3.5872811e-01
3.9252979e-01
4.2189723e-01
4.4162080e-01
4.5323987e-01
4.5366242e-01
4.3860707e-01
4.0287582e-01
3.3988568e-01
2.5173886e-01
1.3812773e-01
1.3399027e-02
-9.5808809e-02
-1.8037475e-01
-2.3916293e-01
-2.7496002e-01
-2.8991810e-01
-2.8955722e-01
-2.8236554e-01
-2.6811739e-01
-2.5036396e-01
-2.3237283e-01
-2.1852454e-01
-2.1347437e-01
-2.1253772e-01
-2.1416769e-01
-2.1711746e-01
-2.2389060e-01
-2.3787517e-01
-2.5252360e-01
-2.6507677e-01
-2.7307087e-01
-2.7750424e-01
-2.8161970e-01
-2.7881939e-01
-2.6176626e-01
-2.2884457e-01
-1.9359711e-01
-1.6684694e-01
-1.4398678e-01
-1.2296425e-01
-1.0003839e-01
-7.7306058e-02
-6.1414380e-02
-5.2848187e-02
-5.3827690e-02
-6.0978150e-02
-7.3169095e-02
-9.2592288e-02
-1.1613717e-01
-1.4136012e-01
-1.6081329e-01
-1.7199826e-01
-1.7711257e-01
-1.7606527e-01
-1.6883999e-01
-1.4861443e-01
-1.1736221e-01
-8.2112450e-02
-4.4069320e-02
-3.3860864e-03
4.3026556e-02
8.8500556e-02
1.2735593e-01
1.5996465e-01
1.8331471e-01
2.0254011e-01
2.2009398e-01
2.3494517e-01
2.4663101e-01
2.5070872e-01
2.5017992e-01
2.4628999e-01
2.3923389e-01
2.3060863e-01
2.1746905e-01
2.0355356e-01
1.8967602e-01
1.7500416e-01
1.6005928e-01
1.4073139e-01
1.1932363e-01
9.6590161e-02
7.3473742e-02
5.1047711e-02
2.2768854e-02
-8.9446960e-03
-3.8718550e-02
-6.5229788e-02
-9.0169322e-02
-1.1868282e-01
-1.5014639e-01
-1.8368855e-01
-2.1494325e-01
-2.4068048e-01
-2.6297834e-01
-2.7970962e-01
-2.9258065e-01
-3.0031164e-01
-3.0297764e-01
-3.0729956e-01
-3.1399729e-01
-3.2531829e-01
-3.3944243e-01
-3.5288175e-01
-3.6533173e-01
-3.7140705e-01
-3.6916710e-01
-3.5212907e-01
-3.1168836e-01
-2.4215837e-01
-1.5023697e-01
-6.4875516e-02
4.4227061e-03
6.3408330e-02
1.1050902e-01
1.4817992e-01
1.7486461e-01
1.9191318e-01
2.0224874e-01
2.0556338e-01
2.0565480e-01
2.0230316e-01
1.9740467e-01
1.9220075e-01
1.8536989e-01
1.7967639e-01
1.7360726e-01
1.6938672e-01
1.6888526e-01
1.7197952e-01
1.8367145e-01
2.0476174e-01
2.3843094e-01
2.8514825e-01
3.4122306e-01
4.0157104e-01
4.5304515e-01
4.9261732e-01
5.2139536e-01
5.3733242e-01
5.4169504e-01
5.3333362e-01
5.1670137e-01
4.9231033e-01
4.5725517e-01
4.1428826e-01
3.6304166e-01
3.0835369e-01
2.5261552e-01
1.9404269e-01
1.3399089e-01
7.1167377e-02
1.0150487e-02
-4.8097420e-02
-1.0544283e-01
-1.5920916e-01
-2.0995114e-01
-2.5314510e-01
-2.8923353e-01
-3.2354735e-01
-3.5513913e-01
-3.8116735e-01
-3.9463487e-01
-3.9676355e-01
-3.9374288e-01
-3.8742424e-01
-3.8013902e-01
-3.6767510e-01
-3.4883285e-01
-3.2640872e-01
-3.0342358e-01
-2.8446940e-01
-2.6474182e-01
-2.4140578e-01
-2.1573109e-01
-1.8992785e-01
-1.6726714e-01
-1.4250041e-01
-1.1508747e-01
-8.8176881e-02
-6.5603266e-02
-5.3593408e-02
-4.8683039e-02
-5.0252382e-02
-6.1476122e-02
-8.2047615e-02
-1.0932826e-01
-1.3552544e-01
-1.5832429e-01
-1.7724429e-01
-1.9396249e-01
-2.1311110e-01
-2.2881117e-01
-2.3553665e-01
-2.3012111e-01
-2.1405182e-01
-1.9414750e-01
-1.6727698e-01
-1.3104986e-01
-8.4753914e-02
-3.1078188e-02
2.1735821e-02
7.3197058e-02
1.2219757e-01
1.6874628e-01
2.1089301e-01
2.4248994e-01
2.6618635e-01
2.8498492e-01
3.0157529e-01
3.1379486e-01
3.1521381e-01
3.0742137e-01
2.9239303e-01
2.7428868e-01
2.5252894e-01
2.2149551e-01
1.8240205e-01
1.3699710e-01
9.3107253e-02
5.4743088e-02
1.9097584e-02
-1.0889524e-02
-3.6814896e-02
-5.8608013e-02
-7.7468604e-02
-9.8523752e-02
-1.2084513e-01
-1.4506669e-01
-1.6697150e-01
-1.8370894e-01
-1.9495969e-01
-1.9337275e-01
-1.7486520e-01
-1.2978278e-01
-6.4850593e-02
-8.5232310e-03
3.1600411e-02
5.9582201e-02
8.0479836e-02
9.7394746e-02
1.1020171e-01
1.2263243e-01
1.3416238e-01
1.4712348e-01
1.6066545e-01
1.7085803e-01
1.7902283e-01
1.8285795e-01
1.8363014e-01
1.8234117e-01
1.7942161e-01
1.7730426e-01
1.7181106e-01
1.6129757e-01
1.4208232e-01
1.1111435e-01
6.9880210e-02
1.6069862e-02
-4.7758321e-02
-1.1820689e-01
-1.8804302e-01
-2.4945890e-01
-3.0408206e-01
-3.4930703e-01
-3.8596537e-01
-4.1645406e-01
-4.3795773e-01
-4.5207919e-01
-4.5829499e-01
-4.5987672e-01
-4.5940326e-01
-4.5453023e-01
-4.4657065e-01
-4.3295243e-01
-4.1561325e-01
-3.9609071e-01
-3.7135802e-01
-3.4232167e-01
-3.0527921e-01
-2.6194587e-01
-2.1624723e-01
-1.6738786e-01
-1.1658836e-01
-6.0912191e-02
-3.9169620e-03
4.8800983e-02
9.7141497e-02
1.4037698e-01
1.8329559e-01
2.2588862e-01
2.6646659e-01
3.0517725e-01
3.4005982e-01
3.7431830e-01
4.0619702e-01
4.3294640e-01
4.5101538e-01
4.5490976e-01
4.4884278e-01
4.3455862e-01
4.1332567e-01
3.8610987e-01
3.5157445e-01
3.1587552e-01
2.8004514e-01
2.4378828e-01
2.0559613e-01
1.6094936e-01
1.1236643e-01
6.3071237e-02
2.1899881e-02
-8.9120341e-03
-3.6926872e-02
-6.2701511e-02
-8.6670289e-02
-1.0476986e-01
-1.1584307e-01
-1.2418544e-01
-1.2617095e-01
-1.2144001e-01
-1.0832890e-01
-8.7367493e-02
-6.4506047e-02
-3.8157842e-02
-7.5245750e-03
3.0710242e-02
7.4804002e-02
1.1478598e-01
1.4662355e-01
1.6579809e-01
1.7085029e-01
1.5678275e-01
1.1167848e-01
2.5581408e-02
-8.6038127e-02
-1.7412735e-01
-2.1926567e-01
-2.3456253e-01
-2.2937123e-01
-2.1368073e-01
-1.8807987e-01
-1.5376006e-01
-1.1713895e-01
-8.0289826e-02
-4.6308023e-02
-1.0909699e-02
2.7983159e-02
6.7495011e-02
1.0724056e-01
1.4194483e-01
1.7426166e-01
2.0716088e-01
2.3739688e-01
2.6207459e-01
2.7425209e-01
2.7629956e-01
2.7297572e-01
2.6717892e-01
2.6446301e-01
2.5978588e-01
2.4917149e-01
2.3320613e-01
2.1244654e-01
1.8703600e-01
1.5396374e-01
1.1881156e-01
8.4677568e-02
5.0513761e-02
1.7813758e-02
-1.6802335e-02
-5.1627003e-02
-8.4603169e-02
-1.1445043e-01
-1.3973744e-01
-1.6361096e-01
-1.8399271e-01
-2.0079154e-01
-2.1355102e-01
-2.2093426e-01
-2.2524828e-01
-2.2064724e-01
-2.0405429e-01
-1.7426496e-01
-1.2710940e-01
-7.1751121e-02
-2.3796279e-02
7.8163616e-03
2.6504700e-02
3.7840929e-02
4.1523733e-02
4.2702743e-02
4.2852001e-02
4.3052613e-02
4.5283649e-02
4.5407319e-02
4.4730905e-02
4.1222517e-02
3.2966687e-02
2.0643815e-02
2.2527120e-03
-1.7618443e-02
-3.9137251e-02
-6.2586456e-02
-8.5652276e-02
-1.0918912e-01
-1.2695797e-01
-1.3677504e-01
-1.3799805e-01
-1.2943349e-01
-1.1325104e-01
-8.6448898e-02
-5.1186262e-02
-1.0243753e-02
3.3939378e-02
7.7617345e-02
1.2423513e-01
1.7246014e-01
2.2026985e-01
2.6383876e-01
2.9713538e-01
3.2313747e-01
3.4087436e-01
3.4766085e-01
3.3936589e-01
3.1179547e-01
2.7084516e-01
2.1978534e-01
1.6273425e-01
1.0186808e-01
3.6644738e-02
-2.4099847e-02
-7.4330891e-02
-1.0955748e-01
-1.3055280e-01
-1.4605551e-01
-1.6082377e-01
-1.7837011e-01
-1.9499703e-01
-2.1053419e-01
-2.3041709e-01
-2.5027286e-01
-2.6731101e-01
-2.7772099e-01
-2.8296637e-01
-2.9117984e-01
-3.0064515e-01
-3.0895231e-01
-3.1310362e-01
-3.1516230e-01
-3.2018894e-01
-3.2520492e-01
-3.2844937e-01
-3.2449952e-01
-3.1140966e-01
-2.9183081e-01
-2.6288684e-01
-2.2233653e-01
-1.6247739e-01
-7.9936557e-02
9.3488650e-03
8.0950809e-02
1.2430990e-01
1.4889300e-01
1.5960600e-01
1.5647784e-01
1.4406830e-01
1.2480529e-01
1.0569356e-01
8.8306953e-02
7.0645252e-02
5.5162363e-02
3.9866375e-02
2.8690526e-02
2.3151707e-02
2.0540098e-02
1.9697421e-02
1.4423969e-02
7.1672431e-03
-2.2931062e-04
-1.0048230e-02
-2.1115619e-02
-3.6877237e-02
-5.5451600e-02
-7.6464813e-02
-9.7343181e-02
-1.0797539e-01
-1.0869635e-01
-9.9799251e-02
-8.3405490e-02
-6.3819996e-02
-4.2121445e-02
-2.2790972e-02
-4.9299577e-03
1.1035741e-02
2.5290571e-02
4.0658313e-02
5.4809599e-02
6.9177158e-02
8.3598805e-02
9.8421971e-02
1.1347052e-01
1.2311006e-01
1.2708328e-01
1.2336611e-01
1.1363619e-01
1.0286912e-01
8.9802005e-02
7.8180115e-02
6.8816590e-02
6.2845341e-02
6.3304498e-02
6.6385267e-02
7.1194848e-02
7.3131818e-02
6.9652759e-02
6.2973282e-02
5.2195478e-02
4.0593916e-02
2.7728357e-02
1.5052215e-02
6.2287687e-03
1.0749662e-03
5.0064370e-03
1.6424948e-02
3.0858122e-02
4.6737844e-02
6.0224674e-02
7.3215789e-02
8.4621083e-02
9.3979913e-02
1.0251390e-01
1.0936650e-01
1.1968065e-01
1.3355032e-01
1.4781110e-01
1.5828015e-01
1.6119842e-01
1.6098615e-01
1.5804421e-01
1.5321409e-01
1.4770555e-01
1.3933256e-01
1.3068248e-01
1.2121093e-01
1.1178577e-01
1.0295543e-01
9.3811486e-02
8.9101328e-02
8.8272962e-02
9.1279909e-02
9.6981706e-02
1.0128684e-01
1.0457375e-01
1.0259377e-01
9.3611941e-02
7.3681753e-02
3.5278665e-02
-1.9503001e-02
-8.9073670e-02
-1.6480400e-01
-2.3637132e-01
-3.0389702e-01
-3.6548342e-01
-4.2099201e-01
-4.6846262e-01
-5.0875151e-01
-5.4815478e-01
-5.8620668e-01
-6.2285541e-01
-6.5528427e-01
-6.8281856e-01
-7.0933868e-01
-7.3237300e-01
-7.4948025e-01
-7.5515055e-01
-7.4672442e-01
-7.2855857e-01
-7.0546785e-01
-6.8326460e-01
-6.5836709e-01
-6.2756345e-01
-5.9204955e-01
-5.4966142e-01
-4.9959511e-01
-4.3339000e-01
-3.4550331e-01
-2.3911394e-01
-1.1829103e-01
9.5409195e-03
1.4392021e-01
2.8043320e-01
4.0851615e-01
5.2188443e-01
6.1465596e-01
6.9092943e-01
7.5318127e-01
7.9885702e-01
8.2795487e-01
8.3690300e-01
8.3019005e-01
8.1299219e-01
7.8691593e-01
7.5361596e-01
7.0944497e-01
6.5827483e-01
6.0360694e-01
5.4532219e-01
4.8363097e-01
4.1410058e-01
3.4453145e-01
2.8486453e-01
2.3626386e-01
1.9785514e-01
1.6478473e-01
1.3892017e-01
1.2277842e-01
1.1613627e-01
1.1764966e-01
1.2044687e-01
1.2401637e-01
1.2838503e-01
1.3269307e-01
1.3609181e-01
1.3415826e-01
1.2928547e-01
1.2200208e-01
1.1363668e-01
1.0670285e-01
9.7707400e-02
8.8827890e-02
7.9658670e-02
6.9185636e-02
5.7552263e-02
4.0614578e-02
2.2502460e-02
6.0956521e-03
-8.0734481e-03
-1.8822624e-02
-2.8198320e-02
-3.2908770e-02
-3.3675393e-02
-3.1064065e-02
-2.3527622e-02
-1.4074319e-02
2.2554290e-05
1.8545491e-02
3.9326679e-02
5.9308923e-02
7.1839916e-02
7.8191603e-02
7.7309414e-02
6.8312577e-02
5.3961723e-02
3.5644850e-02
2.0974291e-02
1.3263601e-02
1.3996493e-02
2.6562356e-02
5.2025562e-02
8.3865904e-02
1.0163963e-01
1.0267684e-01
9.7353757e-02
8.2908678e-02
5.5852619e-02
1.3695486e-02
-4.0524326e-02
-1.0350792e-01
-1.7368303e-01
-2.3989095e-01
-2.9573382e-01
-3.3878104e-01
-3.6967628e-01
-3.9141832e-01
-3.9915332e-01
-3.9264465e-01
-3.7321359e-01
-3.4552276e-01
-3.1776409e-01
-2.8875815e-01
-2.5971820e-01
-2.3211448e-01
-2.0958233e-01
-1.9793257e-01
-1.8948218e-01
-1.7465349e-01
-1.4872334e-01
-1.1637230e-01
-8.5699256e-02
-5.4317508e-02
-2.0669483e-02
1.7527279e-02
5.7991523e-02
9.3996944e-02
1.2697485e-01
1.5600356e-01
1.8122731e-01
2.0043516e-01
2.0844487e-01
2.0819855e-01
2.0156045e-01
1.9271023e-01
1.8160265e-01
1.6235887e-01
1.3637132e-01
1.0582411e-01
7.6949807e-02
5.0782749e-02
2.1666335e-02
-7.5733174e-03
-3.2238115e-02
-4.6257869e-02
-5.0146021e-02
-4.8681710e-02
-4.2100473e-02
-3.4447288e-02
-2.5075043e-02
-1.5910653e-02
-1.1945863e-02
-1.1893481e-02
-1.7402160e-02
-2.3819275e-02
-2.7802392e-02
-3.1300370e-02
-3.2976055e-02
-3.5894653e-02
-3.7582863e-02
-3.6167480e-02
-3.4834321e-02
-3.2894135e-02
-3.2159509e-02
-2.9596448e-02
-2.3219442e-02
-1.4087701e-02
-1.2687588e-03
9.9650386e-03
1.9385034e-02
2.7886891e-02
3.4977139e-02
4.3121878e-02
4.9702645e-02
5.5566991e-02
6.0999242e-02
6.4284444e-02
6.5507683e-02
6.1342414e-02
5.2909544e-02
3.9955347e-02
2.2670885e-02
5.0744793e-03
-1.3246868e-02
-2.9311548e-02
-4.3012545e-02
-5.4453602e-02
-6.0098545e-02
-6.1389526e-02
-5.6810162e-02
-4.9659634e-02
-4.4143046e-02
-3.9590635e-02
-3.9475690e-02
-4.2500126e-02
-4.9116596e-02
-5.8938522e-02
-6.7959433e-02
-7.7414734e-02
-8.3695860e-02
-8.6377728e-02
-8.7523614e-02
-8.6544241e-02
-8.5703115e-02
-8.2086697e-02
-7.6969906e-02
-7.2900090e-02
-6.8223933e-02
-6.4194361e-02
-5.7494291e-02
-4.9087049e-02
-4.1431672e-02
-3.2576854e-02
-2.2671805e-02
-7.3828110e-03
1.2945692e-02
3.4422333e-02
5.5533475e-02
7.2756480e-02
8.6597398e-02
9.5193462e-02
9.6754350e-02
9.0356896e-02
7.4690580e-02
5.6748935e-02
3.9654023e-02
2.4109118e-02
9.9075657e-03
-5.7364173e-03
-1.8550755e-02
-2.7562550e-02
-3.3310269e-02
-3.8098108e-02
-4.6929738e-02
-5.6349121e-02
-6.6360446e-02
-7.7468292e-02
-8.9325550e-02
-1.0446925e-01
-1.1754649e-01
-1.2603736e-01
-1.2806540e-01
-1.2400387e-01
-1.2073376e-01
-1.1621966e-01
-1.0898533e-01
-9.8595355e-02
-8.5643992e-02
-7.5326830e-02
-6.5459273e-02
-5.4796297e-02
-4.1882280e-02
-2.6403146e-02
-1.3065511e-02
2.0581220e-04
1.4982622e-02
3.3317419e-02
5.5155188e-02
7.5104457e-02
9.2538709e-02
1.0566916e-01
1.1574177e-01
1.2258038e-01
1.2082298e-01
1.1073405e-01
9.2740001e-02
7.2337985e-02
5.3320230e-02
3.2777084e-02
1.3559984e-02
-2.0102922e-03
-9.9996572e-03
-1.0397061e-02
-8.8259164e-03
-7.0569110e-03
-9.2898311e-03
-1.3119248e-02
-1.6301109e-02
-2.1474668e-02
-2.6237152e-02
-3.1878499e-02
-3.4509771e-02
-3.1113772e-02
-2.5595005e-02
-1.8196959e-02
-1.2361158e-02
-6.0234943e-03
3.3641405e-03
1.2853157e-02
2.1940297e-02
2.5818432e-02
2.4940611e-02
2.3391280e-02
2.2911976e-02
2.5641910e-02
2.8564462e-02
3.3493084e-02
4.2791119e-02
5.5382365e-02
7.1561685e-02
8.5855634e-02
9.6827786e-02
1.0417918e-01
1.0561237e-01
1.0210030e-01
9.0942155e-02
7.4723892e-02
5.7066111e-02
3.9443887e-02
2.5316996e-02
1.3980083e-02
7.6045037e-03
4.8235308e-03
2.8898638e-03
3.9034030e-03
6.1202262e-03
1.0279757e-02
1.3136489e-02
1.0387616e-02
4.1260089e-03
-5.6287395e-03
-1.4730292e-02
-2.3159137e-02
-3.3082240e-02
-4.2026920e-02
-5.1122860e-02
-5.6083276e-02
-5.6343338e-02
-5.5804678e-02
-5.4010043e-02
-5.2503322e-02
-4.7261486e-02
-3.6768121e-02
-2.3531792e-02
-7.7708099e-03
8.0655122e-03
2.7225414e-02
4.9210756e-02
6.9700360e-02
8.8373322e-02
1.0346457e-01
1.1790928e-01
1.3075152e-01
1.3748399e-01
1.3582315e-01
1.2339948e-01
1.0552757e-01
8.4466746e-02
6.0096526e-02
3.3978080e-02
5.3674101e-03
-1.9580900e-02
-3.7223956e-02
-4.7641066e-02
-5.3617416e-02
-6.1104405e-02
-6.6654582e-02
-6.8912068e-02
-6.9032167e-02
-6.8988654e-02
-7.2751560e-02
-7.4334469e-02
-7.1076438e-02
-6.3211421e-02
-5.1942873e-02
-4.2358972e-02
-3.0230502e-02
-1.2559337e-02
1.1072702e-02
3.7214749e-02
5.7868842e-02
7.5910545e-02
9.2732980e-02
1.0755406e-01
1.2021864e-01
1.2605514e-01
1.2589829e-01
1.1961099e-01
1.0743550e-01
8.9144452e-02
6.1200758e-02
2.6922438e-02
-1.2935768e-02
-5.8274189e-02
-1.1031915e-01
-1.7362782e-01
-2.4475664e-01
-3.2058699e-01
-3.9696400e-01
-4.7189672e-01
-5.4835401e-01
-6.2352033e-01
-6.9184861e-01
-7.4330209e-01
-7.7708993e-01
-8.0175113e-01
-8.1826864e-01
-8.2993053e-01
-8.3832799e-01
-8.4562490e-01
-8.5664170e-01
-8.6877369e-01
-8.8151917e-01
-8.9123167e-01
-8.9587083e-01
-8.9933893e-01
-9.0084891e-01
-9.0282449e-01
-9.0288861e-01
-8.9804881e-01
-8.8951518e-01
-8.7231801e-01
-8.4539971e-01
-8.0343293e-01
-7.3944783e-01
-6.5176149e-01
-5.3327807e-01
-3.9387513e-01
-2.5577205e-01
-1.2949979e-01
-1.8655443e-02
7.4600795e-02
1.4193509e-01
1.8013815e-01
1.9445697e-01
1.9712945e-01
2.0804954e-01
2.3369842e-01
2.6978807e-01
3.0631237e-01
3.3447736e-01
3.5623000e-01
3.7047237e-01
3.7429561e-01
3.6160691e-01
3.3076109e-01
2.9266822e-01
2.5222909e-01
2.0980905e-01
1.5780107e-01
8.5100231e-02
-1.2794767e-02
-1.2430911e-01
-2.1432577e-01
-2.6943454e-01
-2.9668075e-01
-2.9515078e-01
-2.6835971e-01
-2.1870071e-01
-1.5242831e-01
-7.7563812e-02
6.2228982e-03
9.6803128e-02
1.9406704e-01
2.9462933e-01
3.9293931e-01
4.8954992e-01
5.8216765e-01
6.7160611e-01
7.5447742e-01
8.2331949e-01
8.7683399e-01
9.1312465e-01
9.3344886e-01
9.3510248e-01
9.1397073e-01
8.7120559e-01
8.1084544e-01
7.4654589e-01
6.8384040e-01
6.1969383e-01
5.5406479e-01
4.8692477e-01
4.2456843e-01
3.6815714e-01
3.1441928e-01
2.6182805e-01
2.0748586e-01
1.5610605e-01
1.0952812e-01
6.8196858e-02
3.5054107e-02
9.1334837e-03
-5.1478980e-03
-6.9691326e-03
3.2698103e-03
2.7047151e-02
6.1057062e-02
1.0842283e-01
1.7029466e-01
2.4689225e-01
3.4022921e-01
4.3941852e-01
5.3245763e-01
6.1485983e-01
6.8799557e-01
7.5288111e-01
8.0536179e-01
8.4726491e-01
8.7811589e-01
8.9568726e-01
8.9983083e-01
8.8604303e-01
8.5603061e-01
8.1260746e-01
7.6061767e-01
7.0597435e-01
6.4860377e-01
5.9246219e-01
5.3953009e-01
4.9210313e-01
4.5182635e-01
4.1400954e-01
3.7671737e-01
3.3411048e-01
2.8079233e-01
2.1042518e-01
1.2616989e-01
5.2043038e-02
-3.7335953e-03
-4.5398039e-02
-7.7501672e-02
-1.0987965e-01
-1.4622759e-01
-1.9007737e-01
-2.4103337e-01
-2.9687498e-01
-3.5924575e-01
-4.2576984e-01
-4.9781506e-01
-5.7353336e-01
-6.4717605e-01
-7.1789597e-01
-7.8183456e-01
-8.3529695e-01
-8.7097532e-01
-8.8318134e-01
-8.7495490e-01
-8.4726581e-01
-8.0238824e-01
-7.3770078e-01
-6.4429666e-01
-5.3637035e-01
-4.4501786e-01
-3.8017640e-01
-3.3224818e-01
-2.9736093e-01
-2.7780663e-01
-2.6947041e-01
-2.6781817e-01
-2.6906819e-01
-2.7075628e-01
-2.7323497e-01
-2.7514373e-01
-2.7886343e-01
-2.8504425e-01
-2.9379894e-01
-3.0571718e-01
-3.1766783e-01
-3.2931165e-01
-3.3797374e-01
-3.4265053e-01
-3.4478433e-01
-3.4128406e-01
-3.3016903e-01
-3.0693427e-01
-2.6953391e-01
-2.2653501e-01
-1.9039958e-01
-1.6601099e-01
-1.4429627e-01
-1.1877471e-01
-8.8517566e-02
-5.0442881e-02
-7.5468444e-03
3.8592403e-02
8.5985615e-02
1.2953702e-01
1.6751553e-01
1.9713944e-01
2.2117442e-01
2.4053034e-01
2.5210114e-01
2.5738747e-01
2.5509378e-01
2.4678227e-01
2.3351628e-01
2.1415608e-01
1.8954784e-01
1.5678860e-01
1.1947362e-01
8.2835292e-02
4.9129884e-02
2.1941278e-02
3.4305922e-03
2.8125353e-04
1.3940438e-02
4.1467192e-02
8.0193750e-02
1.2334347e-01
1.7094130e-01
2.2138617e-01
2.6970318e-01
3.1263034e-01
3.4590241e-01
3.7181110e-01
3.8956744e-01
3.9564486e-01
3.8734771e-01
3.6081158e-01
3.2186855e-01
2.7601593e-01
2.2664724e-01
1.7594800e-01
1.2055570e-01
6.4431956e-02
1.0330270e-02
-3.9274948e-02
-8.0233191e-02
-1.1602687e-01
-1.4616335e-01
-1.7029754e-01
-1.8936570e-01
-2.0461036e-01
-2.1932133e-01
-2.2989609e-01
-2.3476588e-01
-2.3338789e-01
-2.2532363e-01
-2.1170804e-01
-1.8557187e-01
-1.4195512e-01
-7.6932786e-02
8.5193198e-03
1.0176778e-01
1.9276504e-01
2.7096545e-01
3.2950409e-01
3.6416077e-01
3.6913971e-01
3.4658118e-01
2.9598814e-01
2.2901513e-01
1.6992785e-01
1.2607973e-01
9.6110593e-02
7.4737798e-02
5.7884352e-02
4.2204104e-02
2.1261193e-02
-4.6918915e-03
-3.4713665e-02
-6.4184867e-02
-9.0734909e-02
-1.1684270e-01
-1.3967426e-01
-1.6219791e-01
-1.8610837e-01
-2.1124538e-01
-2.4181128e-01
-2.7686077e-01
-3.1688727e-01
-3.5934803e-01
-4.0261493e-01
-4.4900631e-01
-4.9443541e-01
-5.3781898e-01
-5.7112146e-01
-5.8153102e-01
-5.6358834e-01
-5.1116777e-01
-4.2360732e-01
-3.0276848e-01
-1.5822738e-01
-6.2551150e-03
1.4351387e-01
2.7863995e-01
3.8755886e-01
4.5927977e-01
4.8944561e-01
4.9061620e-01
4.7790324e-01
4.6589769e-01
4.5925486e-01
4.5785401e-01
4.6807549e-01
4.8644217e-01
4.9957144e-01
4.8697524e-01
4.3609174e-01
3.5225917e-01
2.4369026e-01
1.3073553e-01
3.5542488e-02
-3.2302733e-02
-6.5199185e-02
-6.1957120e-02
-2.4327196e-02
3.9819095e-02
1.1899509e-01
2.0580427e-01
2.9241597e-01
3.7934399e-01
4.6598722e-01
5.4784859e-01
6.2014763e-01
6.7139885e-01
6.9872409e-01
7.0342293e-01
6.8699996e-01
6.5457394e-01
6.0595107e-01
5.4464420e-01
4.7076645e-01
3.7811456e-01
2.6305726e-01
1.2563397e-01
-1.8570189e-02
-1.5193624e-01
-2.6456907e-01
-3.5134412e-01
-4.1630419e-01
-4.6332202e-01
-4.9951631e-01
-5.3156138e-01
-5.6205335e-01
-5.9484782e-01
-6.2669056e-01
-6.5263436e-01
-6.6332093e-01
-6.4750882e-01
-6.0395213e-01
-5.3399950e-01
-4.4585981e-01
-3.4789184e-01
-2.4518609e-01
-1.4576309e-01
-4.9488989e-02
4.2576051e-02
1.2523879e-01
1.9165728e-01
2.3588750e-01
2.5678519e-01
2.4768668e-01
2.1554848e-01
1.7621486e-01
1.3390955e-01
9.3168628e-02
5.5918949e-02
2.2182092e-02
-1.3029273e-02
-6.1402838e-02
-1.2194493e-01
-1.8532434e-01
-2.3954462e-01
-2.7450177e-01
-2.8879702e-01
-2.8152329e-01
-2.5583877e-01
-2.1534950e-01
-1.6639573e-01
-1.2079859e-01
-8.3983014e-02
-5.9264371e-02
-4.3092209e-02
-2.9797820e-02
-1.7929021e-02
-4.9694018e-03
5.0469785e-03
1.2235382e-02
1.8786791e-02
2.3007149e-02
2.8043704e-02
3.4535328e-02
4.6789229e-02
6.7802240e-02
9.3031228e-02
1.2090509e-01
1.4787110e-01
1.7430702e-01
1.9931348e-01
2.1700407e-01
2.2568386e-01
2.2185274e-01
2.0806436e-01
1.8815765e-01
1.6228502e-01
1.3403774e-01
1.0398504e-01
7.6288940e-02
5.6047100e-02
4.6591807e-02
4.3743894e-02
2.9623428e-02
1.6629231e-03
-3.1953957e-02
-6.7169977e-02
-9.9244109e-02
-1.2761629e-01
-1.4848485e-01
-1.6097253e-01
-1.6772671e-01
-1.6894415e-01
-1.6873066e-01
-1.6616932e-01
-1.6117651e-01
-1.5565432e-01
-1.4832492e-01
-1.4078736e-01
-1.2976038e-01
-1.1411318e-01
-9.5081553e-02
-7.1962270e-02
-4.8437314e-02
-2.4139116e-02
-1.9778341e-03
1.2697256e-02
2.2288735e-02
3.1216113e-02
4.5174452e-02
6.3304107e-02
8.3043537e-02
1.0389197e-01
1.2152992e-01
1.3779499e-01
1.5254539e-01
1.6303464e-01
1.6913056e-01
1.6832340e-01
1.6351462e-01
1.5462036e-01
1.3874089e-01
1.1482977e-01
8.2175872e-02
4.7758236e-02
1.3778443e-02
-2.0792964e-02
-5.4991897e-02
-8.9235091e-02
-1.1881838e-01
-1.4366513e-01
-1.6609350e-01
-1.8650056e-01
-2.0510543e-01
-2.1649474e-01
-2.1987737e-01
-2.1755917e-01
-2.1418861e-01
-2.1545077e-01
-2.1746752e-01
-2.1779243e-01
-2.1530095e-01
-2.1163093e-01
-2.1037888e-01
-2.0703732e-01
-2.0140850e-01
-1.9449444e-01
-1.8914780e-01
-1.9026789e-01
-1.9336594e-01
-1.9567128e-01
-1.9373385e-01
-1.8728139e-01
-1.7985937e-01
-1.6473811e-01
-1.3553475e-01
-8.5241625e-02
-2.0814228e-02
3.5210170e-02
7.8428196e-02
1.1349081e-01
1.4540416e-01
1.7464849e-01
1.9614043e-01
2.1327446e-01
2.2942046e-01
2.4843919e-01
2.7038608e-01
2.9059092e-01
3.1054643e-01
3.3065342e-01
3.5222834e-01
3.7255939e-01
3.8563639e-01
3.9063866e-01
3.8392252e-01
3.6559965e-01
3.3570135e-01
2.9288082e-01
2.3895179e-01
1.7085331e-01
8.7530148e-02
-1.5904453e-03
-7.4509867e-02
-1.1891485e-01
-1.4203153e-01
-1.4724692e-01
-1.3917874e-01
-1.2487371e-01
-1.0652564e-01
-9.0067560e-02
-7.5936386e-02
-6.4426860e-02
-6.1046137e-02
-6.7731730e-02
-8.4677965e-02
-1.0492297e-01
-1.2505518e-01
-1.4751451e-01
-1.7336171e-01
-2.0587161e-01
-2.4085891e-01
-2.7497642e-01
-3.0794692e-01
-3.3676920e-01
-3.6227986e-01
-3.8131623e-01
-3.9425695e-01
-4.0437081e-01
-4.1006806e-01
-4.1291777e-01
-4.1254624e-01
-4.1212912e-01
-4.1528686e-01
-4.2061449e-01
-4.2806025e-01
-4.3357635e-01
-4.3562536e-01
-4.3091302e-01
-4.1302932e-01
-3.7994889e-01
-3.2724200e-01
-2.5785431e-01
-1.8158507e-01
-1.1174194e-01
-6.5218311e-02
-5.0064794e-02
-6.2850964e-02
-8.2599225e-02
-9.1975835e-02
-9.3862458e-02
-9.4615264e-02
-9.4938301e-02
-7.8965819e-02
-3.5098861e-02
2.9951584e-02
1.0811992e-01
1.8881442e-01
2.6683898e-01
3.3829380e-01
3.9402619e-01
4.3200084e-01
4.5342043e-01
4.6814248e-01
4.8645750e-01
5.0745157e-01
5.3283765e-01
5.6472730e-01
6.0619495e-01
6.5487511e-01
7.0099780e-01
7.4012663e-01
7.6619818e-01
7.7623896e-01
7.6708767e-01
7.3081648e-01
6.6433125e-01
5.7981307e-01
5.0801112e-01
4.5741534e-01
4.1860750e-01
3.9873629e-01
4.0227172e-01
4.2454674e-01
4.5295017e-01
4.7428517e-01
4.8583169e-01
4.8339323e-01
4.6632750e-01
4.3259741e-01
3.7439406e-01
2.8727904e-01
1.6982039e-01
3.6231570e-02
-9.7925584e-02
-2.2660456e-01
-3.4103688e-01
-4.3675977e-01
-5.1169800e-01
-5.6761176e-01
-6.0661437e-01
-6.2592125e-01
-6.2753782e-01
-6.1225885e-01
-5.8438192e-01
-5.4890256e-01
-5.0389824e-01
-4.4946588e-01
-3.8348163e-01
-3.1239468e-01
-2.5201736e-01
-2.1666445e-01
-2.1745147e-01
-2.4869689e-01
-2.9878091e-01
-3.5838362e-01
-4.1808073e-01
-4.7144014e-01
-5.0970844e-01
-5.3536491e-01
-5.5752159e-01
-5.7760882e-01
-5.9126348e-01
-5.8721850e-01
-5.6096700e-01
-5.1230956e-01
-4.4133518e-01
-3.4389261e-01
-2.0433350e-01
-2.4945879e-02
1.7811306e-01
3.8767042e-01
5.8193648e-01
7.4939082e-01
8.8256230e-01
9.8069902e-01
1.0494032e+00
1.0886751e+00
1.0998645e+00
1.0797229e+00
1.0248054e+00
9.3242894e-01
8.0174990e-01
6.5105994e-01
5.0180671e-01
3.7105133e-01
2.6937599e-01
1.9232172e-01
1.2673764e-01
5.1306555e-02
-4.9625759e-02
-1.8581288e-01
-3.4978391e-01
-5.0785978e-01
-6.4144669e-01
-7.4625875e-01
-8.2105468e-01
-8.6838804e-01
-8.8298303e-01
-8.6204961e-01
-8.0482054e-01
-7.1627340e-01
-6.0531035e-01
-4.7363864e-01
-3.2871483e-01
-1.8223852e-01
-5.3988211e-02
3.7667394e-02
9.9134321e-02
1.4150262e-01
1.7097100e-01
1.8482401e-01
1.7592601e-01
1.5252979e-01
1.2857853e-01
1.2301772e-01
1.5537694e-01
2.1415829e-01
2.6218812e-01
2.8148361e-01
2.8042337e-01
2.6210356e-01
2.2495016e-01
1.7755911e-01
1.3026511e-01
9.5267672e-02
7.8325202e-02
7.7953149e-02
9.4943903e-02
1.2357739e-01
1.5663063e-01
1.8029651e-01
1.7742863e-01
1.4293579e-01
8.0852611e-02
7.2598541e-03
-6.3521239e-02
-1.2304890e-01
-1.6404010e-01
-1.9142355e-01
-2.1284241e-01
-2.3702539e-01
-2.7100608e-01
-3.1222415e-01
-3.5455664e-01
-3.8734978e-01
-4.0714676e-01
-4.1344269e-01
-3.9927721e-01
-3.6353241e-01
-3.0712964e-01
-2.3821395e-01
-1.6697682e-01
-9.6944503e-02
-3.3050310e-02
2.7521802e-02
8.6176067e-02
1.4088672e-01
1.9261919e-01
2.3833103e-01
2.7881319e-01
3.1024439e-01
3.2591802e-01
3.2466250e-01
3.0515595e-01
2.7269916e-01
2.2972468e-01
1.7954645e-01
1.3261850e-01
9.1853885e-02
5.8999644e-02
3.2718045e-02
1.0696425e-02
-7.1145364e-03
-2.3950276e-02
-3.6564279e-02
-4.3810344e-02
-4.6921325e-02
-4.4626515e-02
-3.7380203e-02
-2.2211331e-02
-1.3810725e-03
2.1900591e-02
4.4964654e-02
6.1731246e-02
7.3406936e-02
7.9176593e-02
7.8979659e-02
7.4369615e-02
6.3067471e-02
4.9159538e-02
3.4568339e-02
2.0230083e-02
6.1327486e-03
-1.1124688e-02
-2.8263517e-02
-4.4867713e-02
-5.9984114e-02
-7.2938562e-02
-8.9038077e-02
-1.0676422e-01
-1.2484345e-01
-1.4200012e-01
-1.5740941e-01
-1.7396886e-01
-1.8977961e-01
-2.0492143e-01
-2.1596583e-01
-2.1791424e-01
-2.0888042e-01
-1.8348112e-01
-1.4227563e-01
-8.4610458e-02
-1.1266240e-02
6.9364052e-02
1.5418232e-01
2.4343202e-01
3.3121371e-01
4.0080721e-01
4.4642103e-01
4.7786951e-01
5.0116912e-01
5.2409726e-01
5.4750183e-01
5.6096960e-01
5.5615526e-01
5.2578091e-01
4.7583368e-01
4.2183915e-01
3.7821961e-01
3.5678979e-01
3.5378968e-01
3.6349743e-01
3.8051259e-01
3.9605620e-01
4.0634759e-01
4.0486600e-01
3.8968392e-01
3.5704570e-01
2.9586008e-01
1.9613252e-01
4.1010114e-02
-1.5333681e-01
-3.3741419e-01
-4.9040202e-01
-6.1207037e-01
-7.0209096e-01
-7.5824433e-01
-7.8230840e-01
-7.8347115e-01
-7.7083271e-01
-7.5535999e-01
-7.3953999e-01
-7.2158170e-01
-7.0030569e-01
-6.7180172e-01
-6.3740090e-01
-5.9664835e-01
-5.5060128e-01
-5.0486268e-01
-4.6160970e-01
-4.2048537e-01
-3.7201088e-01
-3.0552818e-01
-2.1301338e-01
-8.5989415e-02
7.7116438e-02
2.5630073e-01
4.0809587e-01
5.1398480e-01
5.8292832e-01
6.1853383e-01
6.2754338e-01
6.1274610e-01
5.7559724e-01
5.2447866e-01
4.6667570e-01
4.1449942e-01
3.7316049e-01
3.4061890e-01
3.1780357e-01
3.0221948e-01
2.9325402e-01
2.8430983e-01
2.6609459e-01
2.3730498e-01
1.9986090e-01
1.6337512e-01
1.3506513e-01
1.1555302e-01
1.0056788e-01
8.0341719e-02
5.9561940e-02
4.6377267e-02
3.5580561e-02
1.7765473e-02
-1.3154501e-02
-5.3540255e-02
-1.0162823e-01
-1.5548932e-01
-2.0745485e-01
-2.5048890e-01
-2.7624842e-01
-2.8588424e-01
-2.8464438e-01
-2.7731852e-01
-2.7032116e-01
-2.5935295e-01
-2.4064220e-01
-2.1433643e-01
-1.8265823e-01
-1.5014412e-01
-1.1489878e-01
-7.9770193e-02
-4.5192279e-02
-8.3413171e-03
3.1348265e-02
7.2143122e-02
9.8013149e-02
1.0306228e-01
9.1171683e-02
6.2229043e-02
2.5890053e-02
-9.8278486e-03
-4.0006953e-02
-6.4552019e-02
-9.0125003e-02
-1.1398008e-01
-1.3243681e-01
-1.4212462e-01
-1.4133200e-01
-1.3481039e-01
-1.2258355e-01
-1.0544841e-01
-8.3410787e-02
-5.9079245e-02
-4.0779042e-02
-2.9247232e-02
-2.1593161e-02
-1.2437215e-02
-1.0632827e-03
7.7840847e-03
1.6683226e-02
2.8364943e-02
4.6533070e-02
6.9960365e-02
9.1853004e-02
1.1313174e-01
1.3356307e-01
1.5414987e-01
1.7348711e-01
1.8674684e-01
1.9559814e-01
1.9942966e-01
2.0161567e-01
2.0493726e-01
2.0696596e-01
2.0963305e-01
2.1234987e-01
2.1841573e-01
2.3009217e-01
2.4539354e-01
2.6770761e-01
2.9557305e-01
3.2967680e-01
3.7051451e-01
4.1446495e-01
4.6200605e-01
5.0847230e-01
5.5301027e-01
5.9524679e-01
6.3023116e-01
6.6007443e-01
6.8437587e-01
7.0300338e-01
7.1628893e-01
7.2304569e-01
7.2649961e-01
7.2599088e-01
7.2161577e-01
7.1082142e-01
6.8850617e-01
6.5673921e-01
6.1491659e-01
5.6359649e-01
5.0254992e-01
4.3080637e-01
3.5411958e-01
2.7422007e-01
1.9258236e-01
1.0749287e-01
1.5477575e-02
-7.5645164e-02
-1.5774879e-01
-2.2877155e-01
-2.9642382e-01
-3.6739845e-01
-4.3607293e-01
-4.9744048e-01
-5.4436851e-01
-5.7530512e-01
-5.9478568e-01
-6.0205175e-01
-5.9947301e-01
-5.8760532e-01
-5.7108443e-01
-5.5730039e-01
-5.4461843e-01
-5.3187020e-01
-5.1721062e-01
-5.0401011e-01
-4.9688352e-01
-4.9256273e-01
-4.8857222e-01
-4.7848812e-01
-4.6157673e-01
-4.4216909e-01
-4.2378667e-01
-4.1579584e-01
-4.1868020e-01
-4.3273480e-01
-4.6157247e-01
-5.0341375e-01
-5.5861392e-01
-6.2032807e-01
-6.7875338e-01
-7.2642959e-01
-7.5709070e-01
-7.7068216e-01
-7.6473731e-01
-7.4226629e-01
-7.1175005e-01
-6.7832062e-01
-6.4710615e-01
-6.1650266e-01
-5.8760303e-01
-5.6432451e-01
-5.4822327e-01
-5.4266375e-01
-5.4331490e-01
-5.4963363e-01
-5.6604662e-01
-5.8652973e-01
-5.9915174e-01
-5.9531513e-01
-5.7735471e-01
-5.4852068e-01
-5.1101010e-01
-4.7145473e-01
-4.2940655e-01
-3.8467106e-01
-3.3827792e-01
-2.9088168e-01
-2.4729498e-01
-2.0468382e-01
-1.6042443e-01
-1.1328877e-01
-6.1986087e-02
-1.1028024e-02
3.9992431e-02
8.9287237e-02
1.3423110e-01
1.7430095e-01
2.0498331e-01
2.2776647e-01
2.4387736e-01
2.5524819e-01
2.6710402e-01
2.8061126e-01
2.9728093e-01
3.1418236e-01
3.2965115e-01
3.4379646e-01
3.5383229e-01
3.6306772e-01
3.7094206e-01
3.7675676e-01
3.8252599e-01
3.8712980e-01
3.9345892e-01
3.9977306e-01
4.0669295e-01
4.1835412e-01
4.3298719e-01
4.5033474e-01
4.6611148e-01
4.7957142e-01
4.9257566e-01
5.0048156e-01
5.0311701e-01
4.9763161e-01
4.8150074e-01
4.6172476e-01
4.4839801e-01
4.4829173e-01
4.5662884e-01
4.6843157e-01
4.8055479e-01
4.8689151e-01
4.8682323e-01
4.7665940e-01
4.5432865e-01
4.2217109e-01
3.8254416e-01
3.4341064e-01
3.0702923e-01
2.7326355e-01
2.4299347e-01
2.1513837e-01
1.9198039e-01
1.7042783e-01
1.4834371e-01
1.2458847e-01
9.5736853e-02
6.5583659e-02
3.5309526e-02
6.6975068e-03
-1.9111755e-02
-4.3719404e-02
-6.1053904e-02
-6.8603419e-02
-6.6236633e-02
-5.7225476e-02
-4.7906214e-02
-3.8317919e-02
-3.4809108e-02
-4.5021018e-02
-7.4849875e-02
-1.2446944e-01
-1.7620521e-01
-2.1606517e-01
-2.3976610e-01
-2.5040624e-01
-2.5608964e-01
-2.5578005e-01
-2.4716166e-01
-2.2547736e-01
-1.8808159e-01
-1.4013391e-01
-8.2348724e-02
-1.5906333e-02
5.9853125e-02
1.3569611e-01
1.9064151e-01
2.1988576e-01
2.2679255e-01
2.1666650e-01
1.9272234e-01
1.5220519e-01
9.5712657e-02
2.3806486e-02
-5.6344028e-02
-1.3913470e-01
-2.2595006e-01
-3.1446181e-01
-4.0340693e-01
-4.8582042e-01
-5.5640845e-01
-6.1686407e-01
-6.6615806e-01
-7.0533537e-01
-7.2998940e-01
-7.3665735e-01
-7.2605913e-01
-6.9406334e-01
-6.3989837e-01
-5.6125562e-01
-4.6627958e-01
-3.7332887e-01
-2.8598501e-01
-2.0298686e-01
-1.2019680e-01
-3.5777274e-02
4.5565195e-02
1.2183386e-01
1.8733684e-01
2.4178286e-01
2.8641357e-01
3.1997119e-01
3.4587130e-01
3.6396298e-01
3.7961937e-01
3.9773442e-01
4.1719694e-01
4.3990019e-01
4.6249556e-01
4.8338330e-01
5.0044240e-01
5.0859268e-01
5.0422184e-01
4.7605916e-01
4.1463582e-01
3.3093801e-01
2.5438568e-01
1.9870574e-01
1.5584046e-01
1.2422974e-01
1.0289585e-01
8.8587030e-02
8.2159164e-02
7.9752005e-02
8.1017207e-02
8.5555924e-02
8.9880249e-02
9.3458141e-02
9.2212807e-02
8.6681539e-02
7.5487299e-02
5.4677971e-02
2.7353047e-02
-4.7477771e-03
-3.6664065e-02
-6.5507547e-02
-9.0215328e-02
-1.0557748e-01
-1.1013003e-01
-9.7905182e-02
-7.5305445e-02
-6.2157256e-02
-6.3841579e-02
-7.8938453e-02
-1.0212510e-01
-1.3374579e-01
-1.8148126e-01
-2.4753959e-01
-3.3032867e-01
-4.1768691e-01
-5.0068903e-01
-5.7902222e-01
-6.5021274e-01
-7.1280090e-01
-7.6024504e-01
-7.9123756e-01
-8.1169982e-01
-8.2347256e-01
-8.2528443e-01
-8.0530452e-01
-7.5525326e-01
-6.7489147e-01
-5.6423307e-01
-4.3031069e-01
-2.8034710e-01
-1.2326472e-01
3.2635206e-02
1.7975242e-01
3.0863169e-01
4.1929488e-01
5.1015391e-01
5.7698062e-01
6.1743986e-01
6.2752039e-01
6.1566576e-01
5.9152822e-01
5.5997945e-01
5.2674334e-01
4.9249199e-01
4.6399056e-01
4.4630747e-01
4.3992623e-01
4.4423078e-01
4.5197302e-01
4.6330563e-01
4.7747945e-01
4.8871390e-01
4.9091406e-01
4.7379010e-01
4.3634269e-01
3.8641650e-01
3.3587191e-01
2.8912514e-01
2.3884086e-01
1.8416972e-01
1.2277541e-01
4.9995958e-02
-3.4905628e-02
-1.3438786e-01
-2.4208106e-01
-3.4764669e-01
-4.4076468e-01
-5.1275045e-01
-5.6459735e-01
-5.9642212e-01
-6.1085889e-01
-6.1131981e-01
-5.9972812e-01
-5.8163449e-01
-5.5600328e-01
-5.2416996e-01
-4.8985497e-01
-4.5676939e-01
-4.3378471e-01
-4.2673442e-01
-4.1702672e-01
-3.6052830e-01
-2.5055450e-01
-1.2014147e-01
8.4464900e-03
1.1939707e-01
2.0643750e-01
2.7235239e-01
3.1902761e-01
3.5772776e-01
3.9475222e-01
4.3121798e-01
4.6858279e-01
5.0113293e-01
5.2868052e-01
5.4697989e-01
5.4749084e-01
5.2596073e-01
4.8029022e-01
4.1772041e-01
3.3626475e-01
2.2386273e-01
7.8160886e-02
-8.3568391e-02
-2.3322855e-01
-3.4182696e-01
-3.7455508e-01
-3.3475153e-01
-2.6340216e-01
-1.8840342e-01
-1.2907903e-01
-9.6021307e-02
-8.7856371e-02
-9.7410821e-02
-1.1123029e-01
-1.2780747e-01
-1.5218917e-01
-1.8470280e-01
-2.1496147e-01
-2.1378473e-01
-1.6731146e-01
-8.6434928e-02
5.6123896e-03
8.0475417e-02
1.2953659e-01
1.6121635e-01
1.9313792e-01
2.3716398e-01
2.8711326e-01
3.3394957e-01
3.5939317e-01
3.5140292e-01
3.1778520e-01
2.7037673e-01
2.2452910e-01
1.8421542e-01
1.4755957e-01
1.1864995e-01
1.0292510e-01
1.1031883e-01
1.3580939e-01
1.6085030e-01
1.6785633e-01
1.4873806e-01
1.1835435e-01
9.3434218e-02
8.4705242e-02
9.7630855e-02
1.2843373e-01
1.7516563e-01
2.2671532e-01
2.7067495e-01
2.9963579e-01
2.9942774e-01
2.5792883e-01
1.8029887e-01
9.7305184e-02
3.1142742e-02
-1.4975402e-02
-3.4190972e-02
-2.6385453e-02
3.1055997e-03
3.8013707e-02
4.9350321e-02
2.6067777e-02
-2.6492648e-02
-9.3752800e-02
-1.6015257e-01
-2.2268198e-01
-2.8070858e-01
-3.4110867e-01
-4.0775938e-01
-4.7402058e-01
-5.3200334e-01
-5.7258499e-01
-5.9791740e-01
-6.0592008e-01
-5.8400941e-01
-5.1640866e-01
-3.7415494e-01
-1.8089379e-01
-1.3270751e-02
9.6590141e-02
1.5444458e-01
1.7161307e-01
1.5743339e-01
1.2163250e-01
7.5679131e-02
2.6500303e-02
-1.4792085e-02
-4.6315893e-02
-7.1509899e-02
-9.3533357e-02
-1.1693915e-01
-1.3718298e-01
-1.5271258e-01
-1.6297681e-01
-1.6860055e-01
-1.7366585e-01
-1.7273900e-01
-1.6168049e-01
-1.3634720e-01
-9.2756471e-02
-2.6340566e-02
7.8585682e-02
2.1092958e-01
3.3458718e-01
4.3122489e-01
4.9860148e-01
5.4292655e-01
5.6746579e-01
5.7467290e-01
5.6497843e-01
5.3653838e-01
4.9858716e-01
4.5628699e-01
4.1116646e-01
3.5895189e-01
2.8884953e-01
1.9797389e-01
7.8195962e-02
-7.6038162e-02
-2.6275903e-01
-4.7457373e-01
-6.8538411e-01
-8.7138488e-01
-1.0209548e+00
-1.1346202e+00
-1.2193749e+00
-1.2705180e+00
-1.2781791e+00
-1.2281525e+00
-1.1167037e+00
-9.5016637e-01
-7.2679855e-01
-4.5645859e-01
-1.6019634e-01
1.3536443e-01
4.0518783e-01
6.4224375e-01
8.4122878e-01
9.9751976e-01
1.1047934e+00
1.1559870e+00
1.1598258e+00
1.1276966e+00
1.0733314e+00
1.0067407e+00
9.3095232e-01
8.5516485e-01
7.8389988e-01
7.2015510e-01
6.5872361e-01
5.8453858e-01
4.8873780e-01
3.6820800e-01
2.3522253e-01
9.7703585e-02
-4.5871588e-02
-1.8674768e-01
-3.1946981e-01
-4.3467587e-01
-5.2378351e-01
-5.8510295e-01
-6.1042647e-01
-5.9879773e-01
-5.5084647e-01
-4.6985610e-01
-3.6694703e-01
-2.4686655e-01
-1.1868095e-01
7.9142595e-03
1.2259080e-01
2.1131825e-01
2.6764175e-01
2.8365215e-01
2.5690833e-01
1.8870385e-01
8.0195676e-02
-5.8137530e-02
-2.0913844e-01
-3.4732019e-01
-4.6208373e-01
-5.5563593e-01
-6.2164253e-01
-6.5973995e-01
-6.7165142e-01
-6.5990361e-01
-6.2667927e-01
-5.6584637e-01
-4.7734247e-01
-3.6417213e-01
-2.3635072e-01
-1.0819340e-01
1.5574455e-02
1.2739817e-01
2.2292133e-01
2.9742598e-01
3.4642728e-01
3.7649533e-01
3.9040639e-01
3.9232317e-01
3.8262613e-01
3.5922707e-01
3.3141599e-01
3.0301185e-01
2.7875633e-01
2.6218264e-01
2.4879435e-01
2.3965595e-01
2.3432910e-01
2.3460687e-01
2.3775057e-01
2.3623661e-01
2.3291831e-01
2.2970602e-01
2.3012057e-01
2.3306820e-01
2.3255752e-01
2.3119757e-01
2.2983673e-01
2.3140768e-01
2.3393880e-01
2.2891441e-01
2.1543677e-01
1.9330004e-01
1.6588457e-01
1.3193178e-01
8.6003120e-02
2.8501164e-02
-3.9368423e-02
-1.0703287e-01
-1.7146552e-01
-2.3919200e-01
-3.0500364e-01
-3.6045392e-01
-3.9530640e-01
-4.0838574e-01
-4.0682291e-01
-3.9286080e-01
-3.7182443e-01
-3.4358235e-01
-3.1032190e-01
-2.7767402e-01
-2.4439191e-01
-2.1496826e-01
-1.8912167e-01
-1.6632395e-01
-1.5022305e-01
-1.3946505e-01
-1.3701688e-01
-1.3897351e-01
-1.4137346e-01
-1.4660452e-01
-1.5280614e-01
-1.6157353e-01
-1.6888037e-01
-1.7357886e-01
-1.8167768e-01
-1.9384000e-01
-2.1443891e-01
-2.4297361e-01
-2.7752456e-01
-3.1844191e-01
-3.6082540e-01
-4.0276192e-01
-4.3769373e-01
-4.6035831e-01
-4.6926860e-01
-4.5927095e-01
-4.3002861e-01
-3.7928997e-01
-3.0788883e-01
-2.1876404e-01
-1.1217651e-01
3.1118432e-03
1.1975187e-01
2.2787823e-01
3.1807580e-01
3.9085831e-01
4.4371859e-01
4.7693130e-01
4.8972412e-01
4.8249820e-01
4.6456384e-01
4.4192267e-01
4.2179118e-01
4.0382133e-01
3.8356533e-01
3.6448408e-01
3.4676791e-01
3.3427622e-01
3.2671935e-01
3.1963767e-01
3.1295829e-01
3.0112087e-01
2.8345513e-01
2.5755424e-01
2.1799200e-01
1.6577173e-01
1.0077268e-01
2.9178185e-02
-4.7727041e-02
-1.3472904e-01
-2.3107220e-01
-3.2389070e-01
-3.8386760e-01
-4.0402284e-01
-3.9673558e-01
-3.6851032e-01
-3.2752120e-01
-2.7548625e-01
-2.1674446e-01
-1.6089001e-01
-1.1360336e-01
-8.0647531e-02
-6.0676329e-02
-5.4942110e-02
-6.8412380e-02
-1.0058491e-01
-1.4935256e-01
-2.0461266e-01
-2.5978595e-01
-3.1231858e-01
-3.5653173e-01
-3.8842215e-01
-3.9658197e-01
-3.7199947e-01
-3.0694529e-01
-1.9002758e-01
-4.5107908e-02
7.8956735e-02
1.6223409e-01
2.1389576e-01
2.4430749e-01
2.5704961e-01
2.6159988e-01
2.6463865e-01
2.6954979e-01
2.8125467e-01
2.9716464e-01
3.2100085e-01
3.5623437e-01
4.0218028e-01
4.5638988e-01
5.1050166e-01
5.6600941e-01
6.2385879e-01
6.8096208e-01
7.3461960e-01
7.7698667e-01
8.0802517e-01
8.2652498e-01
8.3013894e-01
8.1968115e-01
7.9852149e-01
7.8081493e-01
7.6983184e-01
7.6255568e-01
7.5845249e-01
7.4953590e-01
7.3085087e-01
6.9443247e-01
6.3251741e-01
5.4240558e-01
4.2295537e-01
2.8351573e-01
1.3099107e-01
-2.7075400e-02
-1.7946772e-01
-3.2258354e-01
-4.4944130e-01
-5.5493277e-01
-6.3447998e-01
-6.8390429e-01
-7.0613736e-01
-7.0034328e-01
-6.7014078e-01
-6.1908328e-01
-5.4797905e-01
-4.6849320e-01
-3.9247426e-01
-3.2936986e-01
-2.8373739e-01
-2.5698052e-01
-2.5226218e-01
-2.6273826e-01
-2.8288134e-01
-3.0946054e-01
-3.3846518e-01
-3.7040401e-01
-4.0023997e-01
-4.2744889e-01
-4.5182510e-01
-4.6829327e-01
-4.7557921e-01
-4.7033157e-01
-4.5591196e-01
-4.3751555e-01
-4.1766030e-01
-4.0021905e-01
-3.8172384e-01
-3.6149844e-01
-3.3919019e-01
-3.1229282e-01
-2.8353900e-01
-2.5284180e-01
-2.1957575e-01
-1.8142449e-01
-1.4038438e-01
-1.0211626e-01
-6.3668803e-02
-2.6956145e-02
4.6875432e-03
2.7811580e-02
3.6763146e-02
3.4827948e-02
2.2644180e-02
2.6192996e-03
-2.1471048e-02
-4.9871954e-02
-7.5228431e-02
-9.2891004e-02
-9.7755064e-02
-8.5665009e-02
-5.9613536e-02
-1.6592219e-02
4.5104143e-02
1.2720031e-01
2.2700180e-01
3.3237301e-01
4.3636659e-01
5.3203221e-01
6.1651031e-01
6.8712402e-01
7.3591202e-01
7.6253332e-01
7.6449015e-01
7.4055844e-01
6.9086883e-01
6.1227910e-01
5.1209753e-01
4.0285852e-01
3.0133741e-01
2.1796904e-01
1.5186211e-01
1.0436249e-01
7.2916288e-02
5.7919976e-02
5.5421838e-02
5.0874956e-02
3.5304633e-02
5.3605668e-04
-5.5930186e-02
-1.3791499e-01
-2.3889156e-01
-3.3058540e-01
-4.0334593e-01
-4.5786177e-01
-4.9460603e-01
-5.1907829e-01
-5.3117671e-01
-5.3583267e-01
-5.3436508e-01
-5.2649095e-01
-5.1723821e-01
-5.0746283e-01
-5.0118934e-01
-4.9711127e-01
-4.9094998e-01
-4.8369776e-01
-4.7523027e-01
-4.7082583e-01
-4.7056599e-01
-4.6631284e-01
-4.4799972e-01
-4.0621987e-01
-3.4465160e-01
-2.6816087e-01
-1.7966144e-01
-8.5744453e-02
9.7544340e-03
1.0189305e-01
1.9069114e-01
2.7671688e-01
3.5881244e-01
4.3943969e-01
5.1497880e-01
5.8502350e-01
6.4963987e-01
7.0537423e-01
7.5235228e-01
7.8639204e-01
8.0695513e-01
8.1230661e-01
7.9786292e-01
7.6508407e-01
7.1344176e-01
6.4709392e-01
5.6735729e-01
4.7222510e-01
3.6712337e-01
2.5556820e-01
1.4527759e-01
3.9971785e-02
-5.8562118e-02
-1.4051295e-01
-2.0480651e-01
-2.5002907e-01
-2.7811325e-01
-2.9744946e-01
-3.1073241e-01
-3.2122660e-01
-3.2632911e-01
-3.2640472e-01
-3.2497594e-01
-3.1885576e-01
-3.0890381e-01
-2.9408654e-01
-2.7697468e-01
-2.6446218e-01
-2.5931295e-01
-2.6462594e-01
-2.7618829e-01
-2.9259021e-01
-3.1736747e-01
-3.4868074e-01
-3.8234788e-01
-4.0603256e-01
-4.1043691e-01
-4.0225510e-01
-3.9731948e-01
-4.0200278e-01
-4.0510210e-01
-4.0133522e-01
-3.9360685e-01
-3.8473797e-01
-3.7906602e-01
-3.7425371e-01
-3.7175908e-01
-3.7495096e-01
-3.8317777e-01
-3.9592043e-01
-4.0445136e-01
-4.0714614e-01
-4.0909229e-01
-4.1208559e-01
-4.1829165e-01
-4.1909849e-01
-4.0569481e-01
-3.7252890e-01
-3.1418342e-01
-2.2948479e-01
-1.0596899e-01
7.3091814e-02
2.9030428e-01
4.9321176e-01
6.5426579e-01
7.8234101e-01
8.8163267e-01
9.5296190e-01
9.9763880e-01
1.0126522e+00
1.0034471e+00
9.7682628e-01
9.3931206e-01
8.9604016e-01
8.4547644e-01
7.9265823e-01
7.4153950e-01
6.9432752e-01
6.5251620e-01
6.1258637e-01
5.7567630e-01
5.3831007e-01
4.9687646e-01
4.4927818e-01
3.8822675e-01
3.1074874e-01
2.0865851e-01
8.8593357e-02
-2.7038015e-02
-1.3446830e-01
-2.3623647e-01
-3.3754049e-01
-4.4161987e-01
-5.4943748e-01
-6.6595939e-01
-7.8295255e-01
-8.8725043e-01
-9.6627450e-01
-1.0130828e+00
-1.0283843e+00
-1.0077210e+00
-9.5341169e-01
-8.7102428e-01
-7.6615077e-01
-6.4868241e-01
-5.2273625e-01
-3.9599177e-01
-2.7528730e-01
-1.6353500e-01
-6.3342765e-02
3.1093360e-02
1.2079447e-01
2.0387786e-01
2.7904573e-01
3.4384134e-01
4.0242267e-01
4.5522178e-01
5.0347534e-01
5.4723400e-01
5.8227776e-01
6.1104781e-01
6.3170936e-01
6.4162306e-01
6.3714724e-01
6.1498038e-01
5.8242972e-01
5.4274130e-01
4.9756577e-01
4.4596571e-01
3.8618805e-01
3.2495391e-01
2.6332436e-01
2.0306775e-01
1.4355056e-01
8.0072513e-02
1.6760141e-02
-4.7009326e-02
-1.0930067e-01
-1.6644431e-01
-2.2010246e-01
-2.6474954e-01
-2.9775143e-01
-3.1657160e-01
-3.2112560e-01
-3.1620633e-01
-3.0082661e-01
-2.7788919e-01
-2.4878466e-01
-2.1791276e-01
-1.9350650e-01
-1.7380444e-01
-1.5823091e-01
-1.4614715e-01
-1.4020744e-01
-1.4545378e-01
-1.5714934e-01
-1.6918383e-01
-1.7245428e-01
-1.6363738e-01
-1.4550664e-01
-1.1458348e-01
-6.7888706e-02
-8.1131087e-03
4.8003500e-02
8.7921139e-02
1.1463902e-01
1.3103839e-01
1.4437245e-01
1.5772265e-01
1.6952792e-01
1.8303495e-01
1.9758777e-01
2.1493287e-01
2.3290526e-01
2.4686983e-01
2.5925697e-01
2.6872762e-01
2.7882061e-01
2.9039220e-01
2.9774672e-01
2.9860894e-01
2.8796562e-01
2.6792974e-01
2.3866840e-01
1.9541823e-01
1.3896000e-01
6.8073485e-02
-1.0531389e-02
-8.9562107e-02
-1.6573362e-01
-2.3080358e-01
-2.8082281e-01
-3.1184768e-01
-3.2386069e-01
-3.1988041e-01
-3.0176231e-01
-2.7839472e-01
-2.5329967e-01
-2.2809034e-01
-2.0554951e-01
-1.8527414e-01
-1.7099949e-01
-1.6197806e-01
-1.5724996e-01
-1.5651938e-01
-1.5709893e-01
-1.5973081e-01
-1.5980561e-01
-1.5476903e-01
-1.4276562e-01
-1.1794533e-01
-7.8416598e-02
-2.7716729e-02
1.7760189e-02
5.0254020e-02
7.5352521e-02
9.4673213e-02
1.1312423e-01
1.2907176e-01
1.3965200e-01
1.4812239e-01
1.5345628e-01
1.5661520e-01
1.5374550e-01
1.4216915e-01
1.2535040e-01
1.0279249e-01
7.8435678e-02
5.1244937e-02
1.7666182e-02
-1.9332243e-02
-5.6548397e-02
-8.5804515e-02
-1.0536975e-01
-1.1596140e-01
-1.1378513e-01
-9.8481069e-02
-7.0552228e-02
-4.0965003e-02
-1.8567210e-02
-3.4945532e-03
2.1981487e-03
2.3305813e-03
-1.8597627e-03
-1.0499423e-02
-2.3233352e-02
-4.1773617e-02
-6.1370004e-02
-8.1516323e-02
-1.0160464e-01
-1.1999586e-01
-1.3834457e-01
-1.5104887e-01
-1.5780468e-01
-1.6039797e-01
-1.5986467e-01
-1.5972356e-01
-1.5384750e-01
-1.3926934e-01
-1.1526346e-01
-7.9739957e-02
-3.3233701e-02
2.3507957e-02
8.0123289e-02
1.3202699e-01
1.7983895e-01
2.1964001e-01
2.5514113e-01
2.8827599e-01
3.2069575e-01
3.5182202e-01
3.7615733e-01
3.9633910e-01
4.1180459e-01
4.2068035e-01
4.2096196e-01
4.0801951e-01
3.8530025e-01
3.5430166e-01
3.1838665e-01
2.8068274e-01
2.3712808e-01
1.8681926e-01
1.2589968e-01
5.3639875e-02
-3.0946286e-02
-1.3437187e-01
-2.5039525e-01
-3.6605463e-01
-4.6888763e-01
-5.5213221e-01
-6.1539747e-01
-6.5514001e-01
-6.7038277e-01
-6.5750573e-01
-6.1601074e-01
-5.5192959e-01
-4.6791801e-01
-3.7137702e-01
-2.6733253e-01
-1.6313583e-01
-7.1156730e-02
5.5594587e-03
6.6578266e-02
1.1873775e-01
1.6913973e-01
2.1824042e-01
2.6800564e-01
3.1540499e-01
3.6203964e-01
4.0746616e-01
4.4465175e-01
4.6739457e-01
4.6260838e-01
4.2779920e-01
3.6736786e-01
2.8443730e-01
1.9051827e-01
9.5451422e-02
9.1390623e-03
-6.3383023e-02
-1.2392527e-01
-1.7306649e-01
-2.1431097e-01
-2.4666607e-01
-2.7196748e-01
-2.9679747e-01
-3.2392956e-01
-3.6033639e-01
-4.0922606e-01
-4.7110587e-01
-5.4178406e-01
-6.0567530e-01
-6.4517017e-01
-6.4040514e-01
-5.8202792e-01
-4.6922102e-01
-3.1691670e-01
-1.6128500e-01
-1.8475226e-02
1.0584162e-01
2.0379367e-01
2.7624465e-01
3.2487597e-01
3.5873213e-01
3.8298050e-01
3.9822737e-01
4.0760080e-01
4.0993037e-01
4.1093710e-01
4.1449636e-01
4.1988034e-01
4.2802847e-01
4.3708687e-01
4.4948024e-01
4.6113488e-01
4.6438604e-01
4.5553651e-01
4.2773100e-01
3.7890762e-01
3.0266095e-01
1.8871433e-01
5.3396236e-02
-6.4873476e-02
-1.4500185e-01
-1.9243372e-01
-2.1513523e-01
-2.1848154e-01
-2.0860782e-01
-1.8568821e-01
-1.5478381e-01
-1.2429524e-01
-1.0136289e-01
-9.2239785e-02
-9.2432050e-02
-9.9873717e-02
-1.1421601e-01
-1.3377977e-01
-1.5874087e-01
-1.8006437e-01
-1.9219796e-01
-1.9533980e-01
-1.9220644e-01
-1.8681750e-01
-1.7389615e-01
-1.5352370e-01
-1.2995606e-01
-1.0827927e-01
-9.4905200e-02
-8.5136827e-02
-7.5653636e-02
-6.3990994e-02
-5.0458506e-02
-4.0851860e-02
-3.0482083e-02
-1.6050995e-02
2.5465717e-03
2.3076683e-02
4.0355353e-02
5.8246755e-02
7.7774528e-02
9.8822485e-02
1.1845783e-01
1.2785310e-01
1.2750379e-01
1.1922321e-01
1.0707811e-01
9.3368242e-02
7.4837342e-02
5.5169958e-02
3.6756256e-02
2.3912839e-02
1.7504726e-02
1.1129281e-02
5.1492379e-03
-1.3386017e-03
-6.2915196e-03
-9.7954667e-03
-1.7504769e-02
-2.7934486e-02
-4.1454205e-02
-5.4677386e-02
-6.5447473e-02
-7.5712007e-02
-8.1025768e-02
-8.1959277e-02
-7.6305657e-02
-6.3037785e-02
-4.6350283e-02
-2.4875632e-02
-1.7470336e-03
2.2901091e-02
4.7405973e-02
6.5105146e-02
7.7227436e-02
8.3065981e-02
8.5237923e-02
8.8087580e-02
9.2808319e-02
1.0271925e-01
1.1580750e-01
1.3222665e-01
1.5057185e-01
1.6685117e-01
1.8351447e-01
1.9847186e-01
2.0981720e-01
2.1414909e-01
2.0587835e-01
1.8633922e-01
1.5533627e-01
1.1576565e-01
6.9937359e-02
1.9599329e-02
-2.8122049e-02
-7.0329538e-02
-1.0181133e-01
-1.2239714e-01
-1.3632770e-01
-1.4270457e-01
-1.4509320e-01
-1.4570987e-01
-1.4672171e-01
-1.4680487e-01
-1.4199012e-01
-1.3725425e-01
-1.3462305e-01
-1.3762792e-01
-1.4892300e-01
-1.6336362e-01
-1.7887326e-01
-1.9096518e-01
-2.0115743e-01
-2.1368698e-01
-2.2571903e-01
-2.3679640e-01
-2.4329161e-01
-2.4663587e-01
-2.5097242e-01
-2.5337892e-01
-2.5209015e-01
-2.4212899e-01
-2.2386263e-01
-1.9983155e-01
-1.6516748e-01
-1.1559014e-01
-4.2117784e-02
4.5821842e-02
1.2166020e-01
1.7592930e-01
2.0939099e-01
2.2805080e-01
2.3438723e-01
2.2769269e-01
2.0981760e-01
1.8140347e-01
1.5034557e-01
1.1982070e-01
8.9243436e-02
6.0264828e-02
3.2773309e-02
1.2323311e-02
-8.4340699e-04
-9.7456150e-03
-1.7406961e-02
-2.9471265e-02
-4.2528299e-02
-5.4954382e-02
-6.6125884e-02
-7.5001010e-02
-8.4650908e-02
-9.0556756e-02
-9.1833493e-02
-8.9553164e-02
-8.3200215e-02
-7.6796770e-02
-6.8142837e-02
-5.6682078e-02
-4.1625511e-02
-2.2018406e-02
-3.2557394e-03
1.5966228e-02
3.7003355e-02
6.1121631e-02
8.7762760e-02
1.1100724e-01
1.3258577e-01
1.5368995e-01
1.7631156e-01
2.0039926e-01
2.1931987e-01
2.3206296e-01
2.3663377e-01
2.3399836e-01
2.2475129e-01
2.0423037e-01
1.7343136e-01
1.3435579e-01
9.4201329e-02
5.7361222e-02
2.1559850e-02
-1.0510751e-02
-3.8070638e-02
-5.7032416e-02
-6.6514179e-02
-7.2164321e-02
-7.4940273e-02
-7.8387048e-02
-8.1299101e-02
-8.1894310e-02
-8.2626839e-02
-8.2002991e-02
-8.2386321e-02
-8.0748574e-02
-7.4184655e-02
-6.6725520e-02
-5.8352161e-02
-5.1946869e-02
-4.5701716e-02
-3.7251326e-02
-3.0071914e-02
-2.4407489e-02
-2.1891762e-02
-1.8129285e-02
-1.0083924e-02
-1.0731911e-03
1.0139301e-02
2.1555633e-02
3.3884834e-02
4.9194598e-02
6.6594455e-02
8.7441553e-02
1.0832600e-01
1.2819966e-01
1.4529290e-01
1.5641817e-01
1.6276266e-01
1.6215290e-01
1.5730535e-01
1.5004959e-01
1.3939491e-01
1.2832762e-01
1.1678782e-01
1.0836005e-01
1.0249150e-01
9.4300295e-02
8.2343324e-02
6.6724325e-02
5.7269706e-02
5.4817678e-02
5.1595439e-02
4.6133548e-02
3.5209916e-02
2.0153002e-02
4.2618364e-04
-2.6666901e-02
-6.1431210e-02
-1.0777533e-01
-1.6011208e-01
-2.0898693e-01
-2.4679783e-01
-2.6718494e-01
-2.7088661e-01
-2.5489696e-01
-2.2135481e-01
-1.7972084e-01
-1.3764524e-01
-1.0202195e-01
-7.0566148e-02
-4.3291325e-02
-2.5434606e-02
-1.8687428e-02
-2.0585325e-02
-1.9793588e-02
-1.2251851e-02
-2.3295006e-03
5.2599134e-03
5.6802661e-03
3.1463763e-03
-1.5823441e-04
-5.5716785e-03
-1.4894157e-02
-3.0798097e-02
-4.6910049e-02
-6.0463743e-02
-7.2419905e-02
-8.3529639e-02
-9.5583134e-02
-1.0240799e-01
-1.0293967e-01
-9.9102354e-02
-9.3339264e-02
-9.0566830e-02
-8.5272138e-02
-7.3388052e-02
-5.2869140e-02
-2.3332524e-02
6.7177067e-03
3.2760097e-02
5.3563811e-02
7.1145646e-02
8.5998213e-02
9.4475570e-02
1.0122772e-01
1.1044930e-01
1.2488860e-01
1.4224897e-01
1.5404817e-01
1.6192425e-01
1.6922569e-01
1.7875374e-01
1.9025263e-01
1.9923681e-01
2.0896158e-01
2.2103922e-01
2.3588069e-01
2.5031577e-01
2.5562766e-01
2.5003545e-01
2.3271103e-01
2.0659004e-01
1.7346381e-01
1.3120790e-01
8.5703134e-02
4.1575613e-02
3.4468431e-03
-2.7651452e-02
-5.5206834e-02
-7.7856142e-02
-9.7654367e-02
-1.1336172e-01
-1.2480284e-01
-1.3605998e-01
-1.4617964e-01
-1.5650717e-01
-1.6196418e-01
-1.5810661e-01
-1.4829337e-01
-1.3241405e-01
-1.1416406e-01
-9.3880605e-02
-7.1466460e-02
-5.0766545e-02
-3.0284107e-02
-1.2494385e-02
2.2465398e-03
1.3669439e-02
2.0681279e-02
2.9887110e-02
4.2191815e-02
5.7967206e-02
7.6290469e-02
9.3983842e-02
1.1270109e-01
1.2860547e-01
1.3953486e-01
1.4268386e-01
1.3350256e-01
1.1417871e-01
8.5174881e-02
4.9694208e-02
9.4053037e-03
-3.4693022e-02
-7.6227142e-02
-1.1352519e-01
-1.4390036e-01
-1.6875689e-01
-1.9188846e-01
-2.1196211e-01
-2.3141742e-01
-2.5085707e-01
-2.7443098e-01
-3.0291145e-01
-3.2698932e-01
-3.4363934e-01
-3.5037450e-01
-3.4949807e-01
-3.4550300e-01
-3.3654852e-01
-3.2292682e-01
-3.0261061e-01
-2.7885617e-01
-2.5612645e-01
-2.3253423e-01
-2.0879783e-01
-1.8136679e-01
-1.5086502e-01
-1.2126173e-01
-9.0982256e-02
-6.0214239e-02
-2.6383711e-02
8.2722516e-03
4.0219882e-02
7.1217561e-02
1.0011255e-01
1.2810368e-01
1.5178819e-01
1.6880234e-01
1.8195015e-01
1.9030533e-01
1.9740314e-01
2.0361598e-01
2.0777609e-01
2.0927300e-01
2.0535044e-01
2.0175548e-01
2.0021868e-01
1.9934212e-01
1.9865672e-01
1.9556418e-01
1.9467366e-01
1.9647745e-01
1.9948412e-01
2.0305414e-01
2.0364088e-01
2.0408123e-01
2.0368394e-01
2.0113495e-01
1.9446528e-01
1.7710042e-01
1.4944034e-01
1.0832267e-01
6.0804186e-02
2.5250904e-02
4.0886907e-03
-4.6772176e-03
-3.6398804e-03
5.8090744e-03
2.1382707e-02
3.5515923e-02
4.8745433e-02
6.2378253e-02
7.7875015e-02
9.4305399e-02
1.0508469e-01
1.0865556e-01
1.0087960e-01
7.9524937e-02
4.4312143e-02
-4.7822686e-03
-5.8400564e-02
-1.0761441e-01
-1.4174881e-01
-1.5555887e-01
-1.5388090e-01
-1.3916588e-01
-1.1758929e-01
-9.2420933e-02
-6.5915271e-02
-4.3941710e-02
-2.8194756e-02
-2.1804349e-02
-2.2004918e-02
-2.7281502e-02
-4.1716741e-02
-6.4508340e-02
-9.6230007e-02
-1.3079925e-01
-1.6196143e-01
-1.8961580e-01
-2.1191774e-01
-2.3043599e-01
-2.4064905e-01
-2.3875139e-01
-2.2779147e-01
-2.0943651e-01
-1.8840930e-01
-1.6227555e-01
-1.2841989e-01
-8.8550215e-02
-3.7911937e-02
2.6325352e-02
9.9879919e-02
1.6672013e-01
2.1602163e-01
2.4942820e-01
2.6564722e-01
2.6859402e-01
2.6143111e-01
2.4361126e-01
2.1642871e-01
1.7738402e-01
1.2926137e-01
7.5186877e-02
1.5669217e-02
-4.7596052e-02
-1.1464924e-01
-1.7830657e-01
-2.3325785e-01
-2.7798915e-01
-3.0968578e-01
-3.2903802e-01
-3.3297007e-01
-3.2223246e-01
-2.9724150e-01
-2.5200866e-01
-1.8170829e-01
-9.5823723e-02
-2.6780013e-02
1.4735411e-02
4.1984297e-02
6.0848161e-02
7.9302054e-02
9.8722920e-02
1.1685166e-01
1.3369312e-01
1.4511890e-01
1.5452578e-01
1.6271667e-01
1.6600015e-01
1.6346820e-01
1.5341409e-01
1.4111715e-01
1.2977276e-01
1.2063704e-01
1.1429247e-01
1.0768689e-01
1.0493129e-01
1.0563600e-01
1.0553894e-01
1.0133912e-01
8.9251880e-02
7.3775041e-02
5.6221578e-02
3.5567048e-02
1.2089453e-02
-1.3212384e-02
-3.1996368e-02
-4.0585389e-02
-3.7829553e-02
-2.6304392e-02
-1.2038266e-02
8.5205888e-03
3.6017694e-02
6.8901438e-02
1.0324971e-01
1.3310506e-01
1.6268950e-01
1.9293117e-01
2.2306621e-01
2.4976034e-01
2.6568426e-01
2.7295328e-01
2.7082728e-01
2.5756278e-01
2.2902272e-01
1.7509370e-01
1.0872331e-01
5.6642391e-02
2.9093324e-02
1.7138966e-02
8.6513124e-03
3.6328976e-03
1.5718740e-03
3.6336377e-04
-4.3370378e-03
-2.0463591e-02
-4.6731905e-02
-8.0486414e-02
-1.1898827e-01
-1.6438248e-01
-2.2283991e-01
-2.9181228e-01
-3.6822080e-01
-4.4601474e-01
-5.2116535e-01
-5.9364111e-01
-6.5783031e-01
-7.0821080e-01
-7.2952300e-01
-7.0312308e-01
-6.1619680e-01
-4.8691712e-01
-3.6896823e-01
-2.7972811e-01
-2.0842988e-01
-1.5058889e-01
-9.7637404e-02
-4.5390427e-02
1.0694571e-02
6.8196859e-02
1.1960958e-01
1.6264215e-01
1.9432487e-01
2.2254776e-01
2.5518763e-01
2.9326088e-01
3.3761757e-01
3.8267038e-01
4.2875359e-01
4.7471985e-01
5.1477906e-01
5.4591092e-01
5.5916514e-01
5.4887792e-01
5.0616565e-01
4.1705002e-01
3.0017411e-01
2.0029311e-01
1.3655070e-01
9.7828912e-02
7.5047837e-02
6.3628998e-02
5.5378975e-02
5.0246452e-02
4.8076372e-02
4.7370584e-02
4.9008148e-02
4.8901348e-02
4.7129597e-02
3.9839033e-02
2.2783595e-02
-5.4013819e-03
-5.1229180e-02
-1.1370604e-01
-1.9302778e-01
-2.8660272e-01
-3.8528008e-01
-4.8536013e-01
-5.7998274e-01
-6.6773123e-01
-7.4737158e-01
-8.0911058e-01
-8.4407093e-01
-8.4370144e-01
-8.0980457e-01
-7.4755892e-01
-6.5973341e-01
-5.4692361e-01
-3.9805924e-01
-2.1069243e-01
9.7164073e-03
2.5962173e-01
5.3681734e-01
8.4468768e-01
1.1732453e+00
1.5041400e+00
1.8162221e+00
2.0847837e+00
2.2936864e+00
2.4204565e+00
2.4409869e+00
2.3414803e+00
2.1249674e+00
1.8108497e+00
1.4027660e+00
8.9000994e-01
3.2410618e-01
-1.8171431e-01
-5.7542558e-01
-8.7053590e-01
-1.0751695e+00
-1.1995093e+00
-1.2629053e+00
-1.2802131e+00
-1.2655063e+00
-1.2268066e+00
-1.1715395e+00
-1.1112058e+00
-1.0485425e+00
-9.8818160e-01
-9.3335232e-01
-8.8543009e-01
-8.4357938e-01
-7.9826617e-01
-7.4680181e-01
-6.8690030e-01
-6.1979823e-01
-5.5215757e-01
-4.8144635e-01
-4.0593038e-01
-3.1876450e-01
-2.2231607e-01
-1.3668998e-01
-6.9670557e-02
-2.2417373e-02
5.4801009e-03
1.1749709e-02
-6.4741026e-03
-3.9720951e-02
-7.7734809e-02
-1.0770489e-01
-1.2308324e-01
-1.2763040e-01
-1.2447345e-01
-1.2102322e-01
-1.1866360e-01
-1.1871597e-01
-1.2899378e-01
-1.5377361e-01
-1.9287573e-01
-2.3322056e-01
-2.6222493e-01
-2.7514354e-01
-2.6828947e-01
-2.4141490e-01
-1.8826373e-01
-1.0953161e-01
-1.5979648e-02
8.2264307e-02
1.7189368e-01
2.5073782e-01
3.2235940e-01
3.8587599e-01
4.3506190e-01
4.5870427e-01
4.5828638e-01
4.3739907e-01
3.9690441e-01
3.3958855e-01
2.6491852e-01
1.8104807e-01
9.5222578e-02
1.0072042e-02
-7.2095452e-02
-1.5366631e-01
-2.2840670e-01
-2.8937958e-01
-3.3338939e-01
-3.5700919e-01
-3.6033237e-01
-3.3602036e-01
-2.9145952e-01
-2.5107172e-01
-2.2480665e-01
-2.1041372e-01
-1.9534894e-01
-1.6583057e-01
-1.1074676e-01
-2.3576200e-02
9.2603117e-02
2.3481155e-01
3.9006280e-01
5.4196054e-01
6.7555136e-01
7.7099629e-01
8.1904022e-01
8.1577788e-01
7.6235064e-01
6.6371908e-01
5.2675114e-01
3.7175745e-01
2.1645074e-01
7.5919151e-02
-3.8212422e-02
-1.2712180e-01
-1.9614968e-01
-2.4503716e-01
-2.5915827e-01
-2.3910595e-01
-2.0064091e-01
-1.4720417e-01
-8.6954042e-02
-2.8408524e-02
2.2957435e-02
5.9365312e-02
8.1242111e-02
8.8110930e-02
8.1702321e-02
6.4492860e-02
3.6282280e-02
5.1213691e-03
-2.2039728e-02
-3.9548086e-02
-4.5857946e-02
-4.2644872e-02
-2.6566608e-02
-2.8059784e-04
3.3093498e-02
6.7474696e-02
9.4962203e-02
1.1790595e-01
1.3670050e-01
1.5254803e-01
1.6543656e-01
1.7514320e-01
1.8889351e-01
2.0689329e-01
2.2773789e-01
2.4672888e-01
2.5732676e-01
2.6084722e-01
2.5659948e-01
2.4801311e-01
2.3467722e-01
2.1262948e-01
1.8583882e-01
1.5493385e-01
1.2345805e-01
9.3085493e-02
6.3466615e-02
3.9919097e-02
2.3202388e-02
1.8085713e-02
2.4897126e-02
3.8317221e-02
6.0479671e-02
8.9257040e-02
1.2071389e-01
1.4690973e-01
1.5966702e-01
1.5899580e-01
1.4455007e-01
1.2029163e-01
8.6551985e-02
4.1229954e-02
-1.1504223e-02
-6.7908452e-02
-1.1895335e-01
-1.5988735e-01
-1.9190652e-01
-2.1531070e-01
-2.3243240e-01
-2.3997095e-01
-2.3925084e-01
-2.3482446e-01
-2.2847742e-01
-2.2311157e-01
-2.1428380e-01
-2.0077942e-01
-1.8265229e-01
-1.5900207e-01
-1.3568593e-01
-1.1307632e-01
-9.2584159e-02
-7.5576659e-02
-6.1043237e-02
-5.0997072e-02
-4.0567490e-02
-2.8425231e-02
-1.5016180e-02
-1.0713384e-03
7.4698630e-03
1.1976126e-02
1.1693183e-02
6.3382393e-03
-2.9709569e-03
-2.1000921e-02
-4.4921880e-02
-7.1110556e-02
-9.5698292e-02
-1.1542367e-01
-1.3387375e-01
-1.5009650e-01
-1.6459275e-01
-1.7793961e-01
-1.9193944e-01
-2.0915920e-01
-2.2207414e-01
-2.2884472e-01
-2.2960289e-01
-2.2434718e-01
-2.1800289e-01
-2.0915249e-01
-1.9757826e-01
-1.8122117e-01
-1.5948245e-01
-1.3850111e-01
-1.2080869e-01
-1.1000583e-01
-1.0323272e-01
-9.6973371e-02
-9.3425383e-02
-9.0127608e-02
-8.7633584e-02
-8.2041724e-02
-7.0563697e-02
-5.6265844e-02
-3.6631471e-02
-1.3108085e-02
1.8855761e-02
6.7452286e-02
1.2347115e-01
1.6690030e-01
1.8537448e-01
1.8507651e-01
1.7222501e-01
1.4702054e-01
1.1467897e-01
7.7825316e-02
4.2592541e-02
1.2337628e-02
-1.4548456e-02
-3.5060966e-02
-5.0470421e-02
-5.8623733e-02
-5.9049849e-02
-5.4924743e-02
-4.4875541e-02
-3.1351318e-02
-1.2922080e-02
1.1332627e-02
3.9448327e-02
7.2254263e-02
1.0788644e-01
1.5132355e-01
2.0567913e-01
2.6096706e-01
3.0237286e-01
3.2214832e-01
3.2638909e-01
3.1647500e-01
2.9157475e-01
2.5729212e-01
2.1523538e-01
1.7058271e-01
1.2523723e-01
7.9658636e-02
3.9238606e-02
4.5032962e-03
-1.9719504e-02
-3.2938792e-02
-3.8755536e-02
-3.7394995e-02
-3.2856672e-02
-2.3250294e-02
-1.0292308e-02
3.3721940e-04
7.8298334e-03
1.1102031e-02
1.5898531e-02
2.2877733e-02
3.1340810e-02
4.7523304e-02
7.2165903e-02
1.0823664e-01
1.5349749e-01
2.0083197e-01
2.4588781e-01
2.8332080e-01
3.1499201e-01
3.4052368e-01
3.5733865e-01
3.6384267e-01
3.5788937e-01
3.4649035e-01
3.3195730e-01
3.1184483e-01
2.8354550e-01
2.4312636e-01
1.9515554e-01
1.4069602e-01
7.9035041e-02
1.0510105e-02
-6.5729608e-02
-1.4421381e-01
-2.2750779e-01
-3.0916204e-01
-3.7093908e-01
-4.1288628e-01
-4.3876796e-01
-4.5104405e-01
-4.5182115e-01
-4.4516232e-01
-4.3941883e-01
-4.3259643e-01
-4.2402222e-01
-4.1483309e-01
-4.0693469e-01
-4.0533921e-01
-4.0479201e-01
-4.0026640e-01
-3.8840851e-01
-3.6990763e-01
-3.5168116e-01
-3.3153745e-01
-3.0680069e-01
-2.7577949e-01
-2.4198880e-01
-2.1665824e-01
-2.0499351e-01
-2.1350857e-01
-2.2787147e-01
-2.1785958e-01
-1.8049786e-01
-1.2608883e-01
-6.3987789e-02
-4.4764927e-04
5.6337334e-02
9.6086177e-02
1.1908597e-01
1.2855824e-01
1.3271673e-01
1.3580079e-01
1.3485118e-01
1.3217664e-01
1.2720394e-01
1.2163848e-01
1.1488254e-01
1.0238672e-01
8.7827556e-02
7.2894134e-02
6.2902538e-02
6.3284120e-02
7.5462421e-02
1.0783056e-01
1.6686200e-01
2.4243135e-01
3.0329730e-01
3.3416759e-01
3.4664039e-01
3.4718069e-01
3.4102092e-01
3.3027862e-01
3.1178965e-01
2.8770018e-01
2.5687699e-01
2.1806390e-01
1.6742842e-01
1.0041618e-01
1.9950126e-02
-7.4439825e-02
-1.7931295e-01
-2.8769896e-01
-3.8779561e-01
-4.5739198e-01
-4.8086600e-01
-4.5019736e-01
-3.7004544e-01
-2.5214057e-01
-1.0295568e-01
6.9705488e-02
2.4130208e-01
3.6629297e-01
4.2865885e-01
4.4481295e-01
4.2476498e-01
3.7952304e-01
3.1485607e-01
2.3493423e-01
1.5131701e-01
7.1332622e-02
4.4225601e-03
-4.7043784e-02
-8.6506911e-02
-1.1317641e-01
-1.3098441e-01
-1.3894774e-01
-1.3865166e-01
-1.3571241e-01
-1.3022026e-01
-1.2428699e-01
-1.1559836e-01
-1.0649172e-01
-1.0212506e-01
-1.0023864e-01
-1.0055498e-01
-9.6362522e-02
-8.3276743e-02
-6.4211911e-02
-4.0076001e-02
-1.2919835e-02
2.0535501e-02
5.9124540e-02
9.6665418e-02
1.3071729e-01
1.5941404e-01
1.8732483e-01
2.1468356e-01
2.3809674e-01
2.5707175e-01
2.6969099e-01
2.7971548e-01
2.8695757e-01
2.9000085e-01
2.8862653e-01
2.7774533e-01
2.5944653e-01
2.3229216e-01
1.9308606e-01
1.4098467e-01
6.8457455e-02
-1.4124591e-02
-8.5734665e-02
-1.4013979e-01
-1.8195082e-01
-2.1725632e-01
-2.4171671e-01
-2.5231451e-01
-2.4925342e-01
-2.3471718e-01
-2.1757253e-01
-1.9824141e-01
-1.7782130e-01
-1.5864498e-01
-1.4088073e-01
-1.2753520e-01
-1.1354389e-01
-9.6620626e-02
-7.7329912e-02
-5.6284630e-02
-3.9110272e-02
-2.5498482e-02
-1.4723098e-02
-3.3567360e-03
1.2659153e-02
3.1331963e-02
5.2630168e-02
7.3354450e-02
9.4662725e-02
1.1971747e-01
1.4412668e-01
1.6503081e-01
1.7855607e-01
1.8479494e-01
1.8371577e-01
1.7073459e-01
1.4704274e-01
1.1278308e-01
7.2796462e-02
3.2723777e-02
-8.1417853e-03
-4.6852973e-02
-8.3587111e-02
-1.1494023e-01
-1.3744227e-01
-1.5507395e-01
-1.6849273e-01
-1.8138446e-01
-1.9119848e-01
-1.9132952e-01
-1.8178736e-01
-1.6705730e-01
-1.6221554e-01
-1.7125199e-01
-1.8895507e-01
-2.1521714e-01
-2.4667154e-01
-2.8512474e-01
-3.2977120e-01
-3.7645578e-01
-4.2488268e-01
-4.7223611e-01
-5.1900189e-01
-5.6280054e-01
-6.0107507e-01
-6.3469323e-01
-6.6054004e-01
-6.8063269e-01
-6.9540823e-01
-7.0443274e-01
-7.0979063e-01
-7.0793016e-01
-6.9746475e-01
-6.7463029e-01
-6.3717270e-01
-5.8680459e-01
-5.2329282e-01
-4.5199005e-01
-3.7393083e-01
-2.9034148e-01
-2.0504538e-01
-1.1578844e-01
-2.5208610e-02
6.5577862e-02
1.5378938e-01
2.3268385e-01
3.0159795e-01
3.5787615e-01
4.0217949e-01
4.3277367e-01
4.4473370e-01
4.4082669e-01
4.2280272e-01
3.9729888e-01
3.6937852e-01
3.3805326e-01
3.0652458e-01
2.7786491e-01
2.5963579e-01
2.5616579e-01
2.6699233e-01
2.8955645e-01
3.1268692e-01
3.3449389e-01
3.5551052e-01
3.7116690e-01
3.8084183e-01
3.8367764e-01
3.8596885e-01
3.9185003e-01
3.9969406e-01
4.0986947e-01
4.2097434e-01
4.3828379e-01
4.6308387e-01
4.8880743e-01
5.1148650e-01
5.2713657e-01
5.3873436e-01
5.4651999e-01
5.4458786e-01
5.2791804e-01
4.9063898e-01
4.3464886e-01
3.5830785e-01
2.5376186e-01
1.3248227e-01
2.3816925e-02
-5.2618560e-02
-9.9654908e-02
-1.2568130e-01
-1.3661810e-01
-1.4091608e-01
-1.3814731e-01
-1.2723925e-01
-1.1090672e-01
-9.0182562e-02
-6.9962191e-02
-4.8441718e-02
-2.3905863e-02
1.9230513e-03
2.9022856e-02
5.4309481e-02
8.1932279e-02
1.1506647e-01
1.5173615e-01
1.9178949e-01
2.3417061e-01
2.8451608e-01
3.4680933e-01
4.2065489e-01
4.9456230e-01
5.4361724e-01
5.5926460e-01
5.4213756e-01
4.9440362e-01
4.2322102e-01
3.3527594e-01
2.4374902e-01
1.5646124e-01
7.4802282e-02
-2.1956508e-03
-7.7595533e-02
-1.4574446e-01
-2.0244005e-01
-2.4420539e-01
-2.6831029e-01
-2.7842996e-01
-2.7447028e-01
-2.6164304e-01
-2.4535692e-01
-2.2775474e-01
-2.1620578e-01
-2.1260548e-01
-2.2205948e-01
-2.5304509e-01
-3.0453497e-01
-3.6805965e-01
-4.3370528e-01
-5.0041462e-01
-5.6687547e-01
-6.2730322e-01
-6.7815637e-01
-7.1345076e-01
-7.3483328e-01
-7.4845992e-01
-7.5856118e-01
-7.6964786e-01
-7.7992478e-01
-7.8982627e-01
-7.9897471e-01
-8.0499480e-01
-8.0758128e-01
-8.0052233e-01
-7.8051461e-01
-7.4415151e-01
-6.8682012e-01
-6.0671312e-01
-4.9659377e-01
-3.5348394e-01
-1.7720988e-01
1.1501705e-02
1.7186276e-01
2.9325812e-01
3.8344288e-01
4.4840931e-01
4.9168031e-01
5.1422480e-01
5.2450864e-01
5.2675921e-01
5.2499935e-01
5.2264640e-01
5.1925354e-01
5.2298892e-01
5.3958671e-01
5.7037868e-01
6.1004840e-01
6.4831363e-01
6.8581728e-01
7.2124971e-01
7.4777908e-01
7.5434658e-01
7.2985347e-01
6.7642793e-01
5.9466537e-01
4.7947736e-01
3.3761049e-01
1.9195514e-01
6.1118444e-02
-5.1734415e-02
-1.4333291e-01
-2.1449217e-01
-2.7176177e-01
-3.1507875e-01
-3.4670858e-01
-3.6843541e-01
-3.8242305e-01
-3.9515690e-01
-4.0664384e-01
-4.1560087e-01
-4.1678826e-01
-4.0612987e-01
-3.8634965e-01
-3.5774101e-01
-3.2302575e-01
-2.8364660e-01
-2.4423928e-01
-2.1197630e-01
-1.8591276e-01
-1.6598114e-01
