-4.5950607e-02
6.2840456e-02
1.4079451e-01
1.2146017e-01
2.6052077e-03
-1.3010327e-01
-2.1541873e-01
-2.3876596e-01
-1.9939595e-01
-8.2945066e-02
1.1028812e-01
3.3733620e-01
5.3703211e-01
6.6310910e-01
6.9209191e-01
6.2925331e-01
4.9730964e-01
3.0074033e-01
4.9782417e-02
-1.9529632e-01
-3.5216267e-01
-3.8956521e-01
-3.1215973e-01
-1.8695856e-01
-1.0617524e-01
-4.5211644e-02
-6.4447682e-03
-3.0586030e-02
-5.9123445e-02
-6.1752445e-02
-5.8033885e-02
-5.9489855e-02
-7.1569681e-02
-7.9744747e-02
-7.7190100e-02
-7.4901570e-02
-8.0060238e-02
-9.8018511e-02
-1.3237729e-01
-1.6853331e-01
-1.9335658e-01
-2.0497127e-01
-1.9008865e-01
-1.2777888e-01
-2.4945854e-03
1.9218495e-01
4.1253944e-01
5.7323387e-01
6.1511089e-01
4.9211396e-01
2.3987413e-01
-4.4034387e-03
-1.6475358e-01
-2.4318877e-01
-2.5821739e-01
-2.3652152e-01
-1.9116719e-01
-1.3080446e-01
-7.9349941e-02
-5.2871716e-02
-6.1484427e-02
-1.2845034e-01
-2.2924978e-01
-2.9292383e-01
-2.9501721e-01
-2.4003767e-01
-1.0716234e-01
8.4978696e-02
2.4880932e-01
3.4341421e-01
4.0649624e-01
4.3949260e-01
4.0500028e-01
3.1753649e-01
1.7027422e-01
-4.6929509e-02
-2.4969559e-01
-4.0429307e-01
-5.4324602e-01
-6.3641641e-01
-6.2611122e-01
-4.8638404e-01
-2.2679719e-01
8.9752493e-02
3.8186852e-01
6.0796228e-01
7.4886972e-01
8.1138467e-01
8.1207620e-01
7.3268651e-01
5.6386320e-01
3.2392116e-01
3.8516849e-02
-2.2273342e-01
-3.8752600e-01
-4.5505106e-01
-4.6747235e-01
-4.4673816e-01
-3.9115712e-01
-3.1189200e-01
-2.2261527e-01
-1.3413443e-01
-5.5032381e-02
9.8449518e-03
4.8889475e-02
6.2928393e-02
6.8046072e-02
7.5660208e-02
7.9163891e-02
5.8499953e-02
1.1004844e-02
-5.3565074e-02
-1.3343728e-01
-2.2110402e-01
-3.0316309e-01
-3.7606948e-01
-4.3460507e-01
-4.3715308e-01
-3.4130423e-01
-1.5225407e-01
1.2999526e-01
4.6054206e-01
7.1017883e-01
8.1178621e-01
7.6315901e-01
6.2789519e-01
4.8850173e-01
3.0315665e-01
6.1401257e-02
-1.6830822e-01
-3.5941346e-01
-5.0268516e-01
-5.8164811e-01
-5.9193751e-01
-5.5423295e-01
-4.7883422e-01
-3.5052519e-01
-1.5448419e-01
6.7636662e-02
2.2932115e-01
3.0410696e-01
3.2778059e-01
3.4566395e-01
3.5126210e-01
3.1484533e-01
2.7036402e-01
2.5139764e-01
2.4072752e-01
2.1423746e-01
1.3845343e-01
1.3114367e-02
-8.0315474e-02
-1.1031347e-01
-1.3017121e-01
-1.6014192e-01
-1.8017001e-01
-1.8247221e-01
-1.7650326e-01
-1.8328337e-01
-2.1858462e-01
-2.6790216e-01
-3.0142301e-01
-3.0207781e-01
-2.6989544e-01
-2.0172546e-01
-9.4993939e-02
3.0789110e-02
1.3832455e-01
1.6939042e-01
9.4053719e-02
-4.4555304e-03
-7.6262129e-02
-1.3728779e-01
-9.0085979e-02
7.5833514e-02
2.6331233e-01
4.5871217e-01
6.2402988e-01
7.1613629e-01
7.1927092e-01
5.9751084e-01
3.4243593e-01
3.1391133e-02
-2.2239005e-01
-3.7732573e-01
-4.4977252e-01
-4.5282498e-01
-3.9862819e-01
-3.1102431e-01
-2.0918729e-01
-1.1523913e-01
-7.8521571e-02
-1.0369917e-01
-1.1939746e-01
-9.5890130e-02
-4.2372405e-02
3.3137436e-02
8.9728979e-02
1.1056023e-01
1.2296701e-01
1.4815577e-01
1.4614920e-01
7.7631284e-02
1.1645671e-03
-3.9151722e-02
-4.3641512e-02
-8.4611154e-03
4.4430871e-03
-6.4484899e-02
-1.5901898e-01
-2.1053198e-01
-1.9129871e-01
-7.7740717e-02
1.0079664e-01
2.8108302e-01
3.9889963e-01
3.7681262e-01
2.2936492e-01
6.2947129e-02
-7.2999037e-02
-1.7974586e-01
-2.4826249e-01
-2.7186650e-01
-2.5778582e-01
-2.2816137e-01
-2.0430388e-01
-1.7508196e-01
-1.2682082e-01
-8.2026066e-02
-5.0443671e-02
-4.9539193e-03
5.7253439e-02
1.0421257e-01
1.2004124e-01
1.4613348e-01
2.5635679e-01
4.3394971e-01
5.4552059e-01
4.9991395e-01
3.4411049e-01
1.5734721e-01
-3.3121280e-02
-1.8531657e-01
-2.6210355e-01
-2.9380316e-01
-3.2015706e-01
-3.4906818e-01
-3.6741705e-01
-3.7229448e-01
-3.7644852e-01
-3.7494157e-01
-3.5204586e-01
-2.9571940e-01
-1.9084473e-01
-1.3497857e-02
2.5640529e-01
5.4723778e-01
7.2293058e-01
7.6160919e-01
7.2448609e-01
5.9851623e-01
3.5781296e-01
5.1773269e-02
-2.4869460e-01
-4.7943500e-01
-6.1973024e-01
-6.8248328e-01
-6.6362429e-01
-5.5657153e-01
-3.6094188e-01
-7.5153924e-02
2.4236021e-01
4.6943350e-01
5.4835767e-01
5.5997318e-01
6.0317004e-01
6.3177500e-01
5.5423290e-01
3.4383481e-01
5.5435423e-02
-2.0357527e-01
-3.8334646e-01
-4.7739655e-01
-5.0129467e-01
-4.9755346e-01
-4.9629855e-01
-4.9423180e-01
-4.5740740e-01
-3.6415036e-01
-2.2116366e-01
-4.1474809e-02
1.7319902e-01
4.1802740e-01
6.2827656e-01
7.3994695e-01
7.3765431e-01
6.0814939e-01
3.6165127e-01
5.8727721e-02
-1.8827525e-01
-3.2104142e-01
-3.7865639e-01
-4.0338396e-01
-4.1458665e-01
-4.1174893e-01
-3.8851071e-01
-3.3195127e-01
-2.3888949e-01
-1.1411795e-01
7.1044075e-02
3.1741550e-01
5.3891213e-01
6.0517420e-01
4.7196064e-01
2.4971526e-01
6.8884461e-02
-4.9785999e-02
-1.5410395e-01
-2.3784532e-01
-2.4961480e-01
-1.8814200e-01
-9.5095903e-02
-2.1548926e-02
2.1240314e-02
2.5518917e-02
-2.8378986e-02
-6.3643199e-02
-2.9922698e-02
2.2261153e-02
7.5369913e-02
1.3928684e-01
2.1950664e-01
2.4982622e-01
1.6121211e-01
3.1079806e-02
-6.9903363e-02
-1.5735985e-01
-2.3835655e-01
-2.9206586e-01
-3.1642725e-01
-3.3191354e-01
-3.3967477e-01
-3.3635640e-01
-3.1491796e-01
-2.4573145e-01
-1.0376468e-01
9.1270312e-02
2.6373059e-01
3.6164837e-01
4.0229939e-01
4.4075031e-01
4.9567425e-01
5.0688226e-01
4.4308086e-01
3.0999298e-01
9.6671244e-02
-1.9778389e-01
-5.0151514e-01
-6.7457426e-01
-6.5748247e-01
-4.8607331e-01
-2.5420061e-01
-9.4030448e-02
-1.3166011e-02
9.3728925e-02
2.5385958e-01
4.0565977e-01
5.0838198e-01
5.5277697e-01
5.6162183e-01
5.5849833e-01
5.0016386e-01
3.4711497e-01
1.0504938e-01
-1.5218521e-01
-3.1609725e-01
-3.7096472e-01
-3.7040194e-01
-3.6335774e-01
-3.5866542e-01
-3.4423016e-01
-3.1757171e-01
-2.6761185e-01
-1.9041979e-01
-9.9255933e-02
-3.4634035e-03
1.0424608e-01
1.8168246e-01
1.8005852e-01
1.5753367e-01
1.6592846e-01
1.6850807e-01
1.1124054e-01
1.1307714e-02
-7.4031519e-02
-1.3309692e-01
-1.6537200e-01
-1.5475280e-01
-9.1203635e-02
-5.0622170e-02
-1.0987472e-01
-1.9683440e-01
-2.1753313e-01
-1.3164503e-01
3.9619991e-02
2.4879172e-01
4.5361328e-01
5.6311172e-01
5.1600653e-01
3.3173973e-01
9.8734793e-02
-8.2375163e-02
-1.7868151e-01
-2.1421830e-01
-2.1946939e-01
-2.0959536e-01
-1.9204843e-01
-1.5535528e-01
-1.2150345e-01
-1.4279817e-01
-2.0328233e-01
-2.5808488e-01
-2.8209958e-01
-2.5608304e-01
-1.7456627e-01
-4.6989522e-02
1.2306269e-01
3.2019239e-01
4.8077129e-01
5.5871649e-01
5.7217757e-01
5.1975651e-01
3.5843875e-01
1.3365143e-01
-4.7804375e-02
-1.6677614e-01
-2.4782016e-01
-2.9603734e-01
-3.0690979e-01
-2.8711460e-01
-2.7364227e-01
-2.8074561e-01
-2.8814408e-01
-2.6639088e-01
-1.9694566e-01
-9.7602227e-02
1.4839351e-02
9.1941409e-02
1.0514410e-01
1.5986746e-01
3.2223430e-01
4.8497316e-01
5.3116113e-01
4.3170972e-01
2.2288370e-01
9.0433943e-03
-1.4506732e-01
-2.3170089e-01
-2.5324965e-01
-2.4864090e-01
-2.5601107e-01
-2.8506150e-01
-3.2229212e-01
-3.4950111e-01
-3.4944712e-01
-3.0958324e-01
-2.1816061e-01
-5.2913138e-02
1.6833788e-01
3.7916657e-01
5.3849489e-01
6.2512641e-01
6.0025413e-01
4.4658970e-01
2.0395066e-01
-3.7695185e-02
-1.8245818e-01
-1.7668977e-01
-6.2325348e-02
1.4383939e-02
-2.5450688e-02
-1.2255559e-01
-2.1063011e-01
-2.4934300e-01
-2.1420510e-01
-1.2157354e-01
6.4246326e-03
1.2364708e-01
1.7793667e-01
1.6692205e-01
9.9962315e-02
1.8824648e-02
-3.5398976e-02
-6.8895887e-02
-9.5170012e-02
-1.1163527e-01
-1.0990147e-01
-8.1002710e-02
-8.6515037e-03
2.9400644e-02
-6.1059285e-02
-2.0841919e-01
-3.2478113e-01
-3.7660559e-01
-3.3495203e-01
-2.0321658e-01
1.8148018e-02
2.8626844e-01
4.9321122e-01
5.8884189e-01
6.3539249e-01
6.4644214e-01
5.4186713e-01
3.2110299e-01
6.3515333e-02
-1.5863436e-01
-3.2149344e-01
-4.3184354e-01
-4.7800607e-01
-4.6954628e-01
-4.4971549e-01
-4.3824893e-01
-4.1016776e-01
-3.3142386e-01
-1.7506124e-01
4.1780257e-02
2.5640686e-01
4.1424636e-01
4.4583374e-01
3.7540329e-01
3.5014462e-01
4.0780822e-01
4.4345773e-01
3.5592180e-01
1.6328572e-01
-2.7669606e-02
-1.7984466e-01
-3.0061996e-01
-3.6740259e-01
-3.8734706e-01
-3.9916001e-01
-4.1676241e-01
-4.3294001e-01
-4.3513214e-01
-4.0052903e-01
-3.0871187e-01
-1.4323204e-01
5.1380778e-02
1.7795341e-01
2.4977896e-01
3.7505972e-01
5.6464012e-01
7.1639017e-01
7.6932343e-01
7.2290743e-01
5.8138947e-01
3.7448124e-01
1.3893783e-01
-1.0706016e-01
-3.3112848e-01
-4.9266709e-01
-5.9622551e-01
-6.5696863e-01
-6.5489531e-01
-5.8139311e-01
-4.6028353e-01
-3.0173409e-01
-9.9921713e-02
1.3709598e-01
3.6697264e-01
5.5479677e-01
6.8418445e-01
6.9041766e-01
5.2474706e-01
2.1207449e-01
-1.6262020e-01
-4.9001080e-01
-7.0706862e-01
-7.9420708e-01
-7.4720305e-01
-5.7199252e-01
-2.8497392e-01
4.6886109e-02
3.3155901e-01
5.3463935e-01
6.3736003e-01
6.2144881e-01
5.1693385e-01
3.5821586e-01
1.6662403e-01
-4.5427394e-03
-1.1106607e-01
-1.7694686e-01
-2.3483927e-01
-2.6447764e-01
-2.3538891e-01
-1.7435567e-01
-1.3553163e-01
-1.3884546e-01
-1.0292532e-01
4.6811985e-02
2.2170605e-01
3.4782769e-01
4.3422519e-01
4.7908323e-01
4.6912125e-01
4.0818833e-01
3.3106299e-01
2.4704868e-01
1.2311172e-01
-4.1830146e-02
-2.0362943e-01
-3.3381470e-01
-4.1153817e-01
-4.3985271e-01
-4.4603289e-01
-4.4285393e-01
-4.3717817e-01
-4.2303845e-01
-3.9370964e-01
-3.5615459e-01
-3.2340304e-01
-2.8179374e-01
-1.5651404e-01
2.3503424e-02
1.6646890e-01
3.2084013e-01
5.0019541e-01
6.3954487e-01
7.1674782e-01
7.2663754e-01
6.6707293e-01
5.4329805e-01
3.5638336e-01
8.5726532e-02
-2.3963983e-01
-5.1235477e-01
-6.5975584e-01
-6.6841841e-01
-5.6081929e-01
-3.9794064e-01
-2.4410737e-01
-1.5958842e-01
-1.4990942e-01
-1.3708382e-01
-4.1922906e-02
1.4713398e-01
3.5957322e-01
5.2302089e-01
6.1687103e-01
6.2536781e-01
5.1364889e-01
2.7245338e-01
-5.3180407e-03
-1.9435530e-01
-2.7230995e-01
-2.7353560e-01
-2.2543015e-01
-1.7198186e-01
-1.6400675e-01
-2.0903528e-01
-2.7212972e-01
-3.0927645e-01
-2.8530497e-01
-2.0879641e-01
-1.1394739e-01
-1.9491001e-02
6.3650981e-02
9.9284717e-02
8.4108103e-02
1.0120602e-01
2.1168634e-01
3.6978478e-01
4.5713119e-01
3.9978434e-01
2.5405409e-01
9.9521280e-02
-5.6239009e-02
-2.0036099e-01
-3.1172891e-01
-3.8358799e-01
-4.0715208e-01
-3.7761592e-01
-2.8638476e-01
-1.3564401e-01
5.9878108e-02
2.4960741e-01
3.4778047e-01
3.1026329e-01
1.9430589e-01
1.0828562e-01
1.0574785e-01
1.6591158e-01
2.0527790e-01
1.3760581e-01
-2.1338034e-02
-1.8619837e-01
-2.9333528e-01
-3.1545141e-01
-3.1019915e-01
-3.4788521e-01
-3.8537712e-01
-3.5197809e-01
-2.1023950e-01
3.4426782e-02
2.9520125e-01
4.6060559e-01
4.9763602e-01
4.3239918e-01
3.1583043e-01
2.3326397e-01
2.3803071e-01
2.7748382e-01
2.3009171e-01
7.4394229e-02
-8.9214509e-02
-1.9792275e-01
-2.4376436e-01
-2.3359309e-01
-2.0022572e-01
-1.7128164e-01
-1.5023814e-01
-1.2289053e-01
-8.0699535e-02
-4.4700564e-02
-3.1976830e-02
-3.3374339e-02
-3.0139937e-02
-9.3794890e-03
1.5605791e-02
1.8484729e-02
-2.5636262e-02
-1.0480722e-01
-1.7095823e-01
-2.1698466e-01
-2.5568954e-01
-2.7794120e-01
-2.5506645e-01
-1.5619781e-01
-5.1017364e-03
1.2398353e-01
1.4626403e-01
5.9407336e-02
1.3376130e-02
1.2351595e-01
3.2359374e-01
4.7441714e-01
5.0779632e-01
4.5912046e-01
3.7044114e-01
2.8888968e-01
2.6949807e-01
2.5327523e-01
1.4111471e-01
-4.7026102e-02
-2.1829371e-01
-3.2675361e-01
-3.6470742e-01
-3.4830905e-01
-3.2363849e-01
-3.1582120e-01
-3.1352626e-01
-2.9575226e-01
-2.6160740e-01
-2.2574539e-01
-1.9311177e-01
-1.4110541e-01
-1.6215438e-02
2.1337017e-01
4.5004529e-01
5.3126651e-01
4.2877700e-01
2.5556494e-01
1.2950967e-01
1.4036031e-02
-1.8140157e-01
-3.8807165e-01
-5.0689373e-01
-5.0466589e-01
-3.7959728e-01
-1.5061077e-01
1.3220748e-01
3.9210380e-01
6.0408785e-01
7.4642073e-01
7.4313256e-01
5.5451655e-01
2.6553358e-01
9.7177023e-03
-1.6403229e-01
-2.7025459e-01
-3.2212830e-01
-3.2209395e-01
-2.8559250e-01
-2.4568150e-01
-2.2484058e-01
-2.3308577e-01
-2.7001577e-01
-3.2440121e-01
-3.6757827e-01
-3.7310080e-01
-3.2353991e-01
-1.8921169e-01
2.2587629e-02
2.7785354e-01
5.2362802e-01
6.7950881e-01
7.1006853e-01
5.9712219e-01
3.7593187e-01
1.5943749e-01
-2.9983573e-02
-2.1028506e-01
-3.3393630e-01
-3.8198934e-01
-3.6645748e-01
-2.8003338e-01
-1.7930208e-01
-1.3018643e-01
-6.8499238e-02
6.4079491e-02
2.2041452e-01
3.1041434e-01
2.7308717e-01
1.7090066e-01
1.2816099e-01
1.3972793e-01
1.0994732e-01
1.8241185e-02
-8.4133157e-02
-1.7243533e-01
-2.4698060e-01
-2.7884520e-01
-2.5916906e-01
-2.1790061e-01
-1.6660517e-01
-1.2961318e-01
-1.3535025e-01
-1.3350287e-01
-6.4681118e-02
4.2956905e-02
1.3274519e-01
1.6608643e-01
1.3681026e-01
1.2449988e-01
2.0927296e-01
3.3015498e-01
3.6815594e-01
3.4401536e-01
2.6980312e-01
1.0925832e-01
-6.8276881e-02
-2.1446090e-01
-3.1019121e-01
-3.4694796e-01
-3.5161820e-01
-3.4777895e-01
-3.2571112e-01
-2.4167324e-01
-8.5049340e-02
7.7097156e-02
1.6632983e-01
1.8874385e-01
1.9255101e-01
2.3145688e-01
3.2560364e-01
3.9885237e-01
3.7308678e-01
2.7824936e-01
1.8163790e-01
4.3901067e-02
-1.6780472e-01
-3.4230808e-01
-4.2741530e-01
-4.5898277e-01
-4.3607990e-01
-3.5158281e-01
-2.0593241e-01
-2.8374291e-02
1.3804111e-01
2.6853810e-01
3.3232986e-01
3.0764289e-01
2.2301922e-01
1.1621214e-01
2.5053436e-02
-3.2095658e-02
-8.9398005e-02
-1.3755241e-01
-1.5463353e-01
-1.6528812e-01
-1.9259597e-01
-2.1814877e-01
-1.7814014e-01
-6.5055900e-02
4.7042035e-02
8.0997331e-02
5.8051657e-02
9.6588600e-02
1.8627671e-01
2.6263185e-01
3.4489152e-01
3.5657849e-01
2.6837960e-01
2.0262958e-01
1.8295921e-01
1.2280841e-01
2.5905013e-02
-4.5943895e-02
-1.2514580e-01
-2.3996919e-01
-3.3697257e-01
-3.9586523e-01
-4.3890203e-01
-4.7953237e-01
-5.0541680e-01
-4.7876217e-01
-3.8229455e-01
-2.1577461e-01
2.6778655e-02
3.0378563e-01
5.2253389e-01
6.6161546e-01
7.5464334e-01
7.8577325e-01
7.3632492e-01
5.9501343e-01
3.4367581e-01
3.8261554e-02
-2.1404345e-01
-3.6612522e-01
-4.2283106e-01
-4.1241548e-01
-3.8625317e-01
-3.6242753e-01
-3.1987983e-01
-2.5556081e-01
-1.8827171e-01
-1.2901213e-01
-7.9377383e-02
-3.1002513e-02
3.4105374e-02
1.2111891e-01
2.1343399e-01
2.6127216e-01
2.1310062e-01
1.0638283e-01
1.6529416e-02
-4.2089216e-02
-6.3169669e-02
-6.9541610e-02
-1.1133379e-01
-1.6909325e-01
-2.1133856e-01
-2.3262652e-01
-2.4160907e-01
-2.3545609e-01
-1.7679985e-01
-6.8772802e-02
8.1577586e-02
2.5726076e-01
3.8435166e-01
4.7265351e-01
5.3266329e-01
4.7656882e-01
2.9917776e-01
8.3814212e-02
-1.1601666e-01
-2.7225359e-01
-3.5176429e-01
-3.5914400e-01
-3.2828639e-01
-2.5273902e-01
-1.4697167e-01
-1.2267528e-02
1.6664984e-01
3.0780021e-01
3.6650483e-01
3.4998381e-01
2.4101738e-01
9.3568918e-02
-1.9794344e-02
-9.4355370e-02
-1.4451278e-01
-1.9981095e-01
-2.7756212e-01
-3.4986289e-01
-4.1348564e-01
-4.7331442e-01
-4.9365036e-01
-4.2990728e-01
-2.8166297e-01
-6.4949172e-02
2.0338363e-01
4.6395972e-01
6.6202389e-01
7.7971901e-01
8.0724513e-01
7.2526522e-01
5.0981016e-01
2.0621745e-01
-5.7928246e-02
-2.2154465e-01
-3.1465425e-01
-3.5107683e-01
-3.2876290e-01
-2.6423035e-01
-1.6890425e-01
-5.9622494e-02
1.1252954e-02
7.7074983e-03
-3.8638468e-02
-8.2760631e-02
-9.7960396e-02
-8.8106962e-02
-8.4618681e-02
-9.2755235e-02
-1.1341479e-01
-1.2880067e-01
-9.8238745e-02
-2.7044580e-02
6.0844885e-02
1.5507153e-01
2.4359129e-01
2.4504738e-01
9.5996542e-02
-1.0108968e-01
-2.5257622e-01
-3.4320696e-01
-3.4329096e-01
-2.5569380e-01
-1.2974830e-01
2.5894474e-03
1.3860747e-01
2.4031731e-01
2.8935819e-01
3.4947640e-01
3.9558270e-01
3.3019317e-01
1.6807526e-01
8.1216754e-04
-1.0305922e-01
-1.2931220e-01
-1.2898324e-01
-1.5527071e-01
-1.6012169e-01
-8.0571558e-02
7.4529930e-03
-3.1043269e-02
-1.5161588e-01
-2.0173975e-01
-1.3519042e-01
2.4575712e-02
1.9829234e-01
2.8414972e-01
2.8975706e-01
2.9567104e-01
2.9241342e-01
1.8268185e-01
-2.0160772e-02
-1.9550086e-01
-2.9739111e-01
-3.3992664e-01
-3.3164615e-01
-2.7560087e-01
-1.7222886e-01
-4.0449728e-02
6.7805415e-02
1.0459026e-01
9.0634608e-02
9.5428131e-02
1.6277894e-01
2.6145528e-01
3.3912353e-01
3.4103222e-01
2.1985328e-01
3.4885864e-02
-1.2931834e-01
-2.3631523e-01
-2.8314177e-01
-2.9763145e-01
-2.7885816e-01
-2.1441440e-01
-1.1216661e-01
-3.4558191e-04
7.4920900e-02
7.4727499e-02
-1.4172005e-02
-1.2746883e-01
-1.9041449e-01
-2.0436227e-01
-1.7399206e-01
-7.0216242e-02
7.1184283e-02
1.9603579e-01
3.4802399e-01
5.1110902e-01
5.7589045e-01
4.6613303e-01
2.5477988e-01
4.4713480e-02
-1.6967818e-01
-3.2063516e-01
-3.4854095e-01
-2.8884724e-01
-1.9997530e-01
-1.2198800e-01
-5.7227373e-02
-4.0093469e-02
-1.0972020e-01
-2.3555722e-01
-3.1680279e-01
-2.8923850e-01
-1.7465676e-01
-1.5349377e-02
1.7158758e-01
3.7125701e-01
5.5480727e-01
6.7828446e-01
6.5518707e-01
4.5823316e-01
1.8699066e-01
-4.6697719e-02
-2.0493461e-01
-3.0761754e-01
-3.7749857e-01
-4.0642247e-01
-3.8647636e-01
-3.4229457e-01
-2.8556247e-01
-2.0013226e-01
-8.8313662e-02
4.1603860e-03
4.5980230e-02
6.6661248e-02
5.1553004e-02
-1.2123830e-02
-3.2345749e-02
4.8502867e-02
1.9497435e-01
3.0765398e-01
2.8638873e-01
1.6933582e-01
7.9027738e-02
6.4589086e-02
6.8735366e-02
-7.7467461e-03
-1.5485349e-01
-2.5522129e-01
-2.4805100e-01
-1.4697074e-01
-1.6389851e-02
1.0464537e-01
2.6321663e-01
4.2986352e-01
4.9186108e-01
3.9918378e-01
1.9915907e-01
-3.2952664e-03
-1.6007676e-01
-2.7371458e-01
-3.2927888e-01
-3.3796089e-01
-3.4887872e-01
-3.7885040e-01
-3.9614983e-01
-3.8305576e-01
-3.4973784e-01
-2.8512974e-01
-1.4289583e-01
8.2821425e-02
2.9856272e-01
4.4978991e-01
5.7573973e-01
6.3696754e-01
5.7293359e-01
4.1162907e-01
1.9461231e-01
-9.6664870e-03
-1.4282267e-01
-2.1319043e-01
-2.3673653e-01
-2.2561996e-01
-2.0289076e-01
-1.8709719e-01
-1.7825014e-01
-1.5677262e-01
-1.0451346e-01
-1.5605886e-02
1.1532406e-01
2.4419517e-01
2.6551643e-01
1.5474657e-01
-4.7157505e-03
-1.3518752e-01
-2.0618869e-01
-2.1860201e-01
-1.6957444e-01
-5.4867566e-02
7.0974815e-02
1.2919519e-01
1.1184319e-01
5.0769350e-02
-2.0376155e-02
-4.7411857e-02
7.1844343e-03
1.0344194e-01
1.9213613e-01
2.5461259e-01
2.4109134e-01
1.1484815e-01
-8.0874988e-02
-2.7677819e-01
-4.4184623e-01
-5.4842440e-01
-5.7970419e-01
-5.5847164e-01
-4.9847153e-01
-3.6566968e-01
-1.2526805e-01
1.6289305e-01
3.7724168e-01
4.5862159e-01
4.4191452e-01
3.6881953e-01
2.5862512e-01
1.8742056e-01
2.1485244e-01
3.0276046e-01
4.0680287e-01
5.0180690e-01
5.4004644e-01
4.7979128e-01
3.1427035e-01
5.0472028e-02
-2.4947400e-01
-4.8693758e-01
-6.5017699e-01
-7.6004989e-01
-7.8146114e-01
-6.8975914e-01
-5.1753098e-01
-3.2671633e-01
-1.3365982e-01
1.0633990e-01
3.6327400e-01
5.4974273e-01
6.6168832e-01
7.2534154e-01
7.2029523e-01
6.0963088e-01
4.1889997e-01
2.1131203e-01
-5.8289609e-03
-2.2280897e-01
-3.8673613e-01
-4.7258281e-01
-4.8903910e-01
-4.6435957e-01
-4.3233128e-01
-3.9464062e-01
-3.4703729e-01
-2.6330873e-01
-1.1014857e-01
1.2432282e-01
3.7359056e-01
4.9747915e-01
4.6596577e-01
3.1479020e-01
1.2764037e-01
2.2515061e-02
1.0520863e-02
3.7450051e-02
1.8595173e-02
-5.0601493e-02
-6.9091966e-02
-2.0908222e-02
-3.3300825e-03
-7.1401301e-02
-1.5677011e-01
-2.0472714e-01
-2.1564603e-01
-1.6496509e-01
-5.6701742e-02
7.7476152e-02
2.2132577e-01
3.0531818e-01
2.6034570e-01
1.3357539e-01
5.0279227e-03
-9.6942645e-02
-1.6008699e-01
-1.7630638e-01
-1.4731207e-01
-8.4857937e-02
-8.6489928e-03
3.9683542e-02
4.0363991e-02
4.9557619e-02
6.7881225e-02
3.9192223e-02
-1.5658885e-02
-5.3077730e-02
-6.7273951e-02
-7.2228733e-02
-8.2952531e-02
-9.8513424e-02
-9.1084486e-02
-3.5143764e-02
5.1020088e-02
1.4212776e-01
1.9618100e-01
1.4926087e-01
1.4870000e-02
-1.4003801e-01
-2.8709636e-01
-4.0362538e-01
-4.5445736e-01
-4.3987343e-01
-3.7214329e-01
-2.3712701e-01
-2.2642519e-02
2.4080200e-01
4.6171762e-01
5.7375378e-01
5.9544814e-01
5.5446369e-01
4.9795154e-01
4.7431178e-01
4.3371444e-01
2.9775016e-01
9.1664667e-02
-9.6210930e-02
-2.2585143e-01
-2.9737800e-01
-3.1972730e-01
-3.1190002e-01
-2.9005516e-01
-2.6565553e-01
-2.4785094e-01
-2.3765539e-01
-2.3217387e-01
-2.3025972e-01
-2.3240409e-01
-2.3744485e-01
-2.3310084e-01
-1.9539397e-01
-9.8595440e-02
6.9238572e-02
2.4860125e-01
3.7243051e-01
4.4502073e-01
4.2204672e-01
2.9354162e-01
1.7264442e-01
1.1075395e-01
6.9527607e-02
2.9316346e-02
1.5529783e-02
6.0332665e-02
1.3336006e-01
1.3270606e-01
-4.4518952e-04
-1.9729491e-01
-3.7703853e-01
-5.0787195e-01
-5.4813686e-01
-4.8757815e-01
-3.4697849e-01
-1.4244305e-01
6.1002852e-02
1.9733117e-01
2.6608799e-01
2.5583277e-01
2.0530545e-01
1.9017220e-01
1.8991443e-01
1.7552709e-01
1.5604861e-01
1.5520690e-01
2.0220392e-01
2.9212004e-01
3.7580031e-01
3.8045309e-01
2.9209340e-01
1.6408083e-01
1.8269852e-02
-1.5131095e-01
-3.1736614e-01
-4.3617641e-01
-4.9293763e-01
-5.0974612e-01
-5.1144371e-01
-4.9419608e-01
-4.1212885e-01
-2.3665795e-01
-3.4334539e-02
9.6884520e-02
1.1883251e-01
1.1616009e-01
1.9118376e-01
3.0225622e-01
3.8510885e-01
4.2525905e-01
4.1901542e-01
3.7657210e-01
2.9836588e-01
1.9009840e-01
7.6010410e-02
-3.8136616e-02
-1.6642755e-01
-2.8206459e-01
-3.4665860e-01
-3.5932443e-01
-3.1981914e-01
-2.7219241e-01
-2.5989651e-01
-2.2534062e-01
-1.0217791e-01
9.2394438e-02
2.6258932e-01
3.4429016e-01
3.7137784e-01
3.9295334e-01
3.8454148e-01
2.8101822e-01
1.2865738e-01
2.5568827e-02
-3.7735637e-02
-9.4681210e-02
-1.0761424e-01
-5.3708109e-02
4.3550805e-02
1.3280099e-01
1.0832127e-01
-4.5617609e-02
-2.2446165e-01
-3.7348777e-01
-4.7914613e-01
-5.1702354e-01
-4.9805955e-01
-4.5509312e-01
-3.7893219e-01
-2.1490214e-01
4.5012588e-02
2.9456258e-01
4.1521326e-01
3.8720702e-01
3.0441606e-01
2.6248087e-01
2.3128080e-01
1.2981454e-01
-2.2989664e-02
-1.2569273e-01
-1.1324307e-01
8.7735144e-03
1.6825526e-01
2.9262390e-01
3.5894470e-01
3.6358919e-01
2.7666100e-01
8.5813849e-02
-9.3049756e-02
-1.4660757e-01
-1.1408559e-01
-1.1875955e-01
-2.0815743e-01
-2.9670000e-01
-3.1636390e-01
-2.5983916e-01
-1.7288534e-01
-1.5499634e-01
-2.0275188e-01
-1.8810787e-01
-3.3782700e-02
2.0089435e-01
3.6316150e-01
3.5619389e-01
2.5388310e-01
1.8435474e-01
1.9296757e-01
2.2130664e-01
1.7283870e-01
7.3026501e-02
2.7076474e-02
1.5150273e-02
-5.8473019e-02
-1.9221349e-01
-3.0987173e-01
-3.8832363e-01
-4.5606312e-01
-5.1157790e-01
-5.1947353e-01
-4.5080628e-01
-3.0703258e-01
-1.0441566e-01
1.1066369e-01
2.5202873e-01
2.6992447e-01
2.4901060e-01
3.1263992e-01
4.2668308e-01
5.1530069e-01
5.6952005e-01
5.6077328e-01
4.5510667e-01
2.7448482e-01
7.3448208e-02
-7.6618630e-02
-1.5403976e-01
-2.2896404e-01
-3.3238597e-01
-4.1257773e-01
-4.1825021e-01
-3.6027417e-01
-2.6911240e-01
-1.4637583e-01
-5.2711906e-03
1.2381644e-01
2.4459506e-01
3.4110200e-01
3.1730508e-01
1.6725140e-01
7.8306716e-03
-1.2137003e-01
-2.3292674e-01
-3.0001080e-01
-3.0208907e-01
-2.5314402e-01
-1.7868369e-01
-6.8367556e-02
8.5771585e-02
2.1630308e-01
2.6535966e-01
2.6113137e-01
2.1713685e-01
1.4581128e-01
9.6329729e-02
4.0218156e-02
-6.0445242e-02
-1.4604792e-01
-1.4389496e-01
-5.2382553e-02
7.6046663e-02
1.6752555e-01
1.5517502e-01
6.1991944e-02
-2.6357583e-02
-7.9262713e-02
-1.3553847e-01
-2.2005804e-01
-2.9966646e-01
-3.5939192e-01
-4.1918944e-01
-4.8408020e-01
-5.2174862e-01
-4.7321493e-01
-3.2102054e-01
-9.5694496e-02
1.6878511e-01
4.2579817e-01
6.3064158e-01
7.5637343e-01
7.9985908e-01
7.9752502e-01
7.6904326e-01
6.9537145e-01
5.3252083e-01
2.2045728e-01
-1.9438486e-01
-5.3091549e-01
-6.9249620e-01
-7.3210516e-01
-7.1095949e-01
-6.5707368e-01
-5.7186151e-01
-4.2994664e-01
-2.3467056e-01
-4.7842829e-02
1.1086473e-01
2.7981269e-01
4.4881263e-01
5.7379819e-01
6.1565358e-01
5.6106930e-01
4.2647015e-01
2.2799199e-01
2.9035276e-02
-6.7866438e-02
-9.8324211e-02
-1.7902963e-01
-2.8783043e-01
-3.5784558e-01
-3.7476460e-01
-3.1720387e-01
-1.9093918e-01
-4.1833924e-02
1.2317636e-01
2.8082007e-01
3.2039758e-01
2.1757586e-01
8.9975621e-02
-9.4111773e-04
-6.9777813e-02
-1.1178237e-01
-1.0431370e-01
-5.0084337e-02
1.3601650e-02
5.2032451e-02
7.0101870e-02
7.2961733e-02
4.0332760e-02
-1.3922625e-02
-6.9211166e-02
-1.0660092e-01
-9.2625365e-02
-4.7401207e-02
-2.2828415e-02
-3.7378706e-02
-8.1951136e-02
-1.2020146e-01
-1.3467662e-01
-1.5410915e-01
-1.9456711e-01
-2.4553135e-01
-2.8436250e-01
-2.8932797e-01
-2.4668132e-01
-1.4557240e-01
-2.6221189e-03
1.3103372e-01
2.2920422e-01
3.2001974e-01
4.0859123e-01
4.4778326e-01
4.0354601e-01
2.5976149e-01
6.9709083e-02
-2.5137051e-02
-9.2132401e-03
-2.5243046e-02
-1.2124218e-01
-1.9368742e-01
-1.9304484e-01
-1.7945966e-01
-1.7363267e-01
-1.4588287e-01
-7.5365069e-02
5.1332214e-02
2.1241955e-01
3.5111340e-01
4.3631183e-01
4.6832687e-01
4.3687058e-01
3.1487429e-01
8.0478596e-02
-2.1840699e-01
-4.7000514e-01
-6.0416860e-01
-6.0443764e-01
-5.1516655e-01
-3.9283080e-01
-2.2289970e-01
-1.1871479e-02
2.2229654e-01
4.6591854e-01
6.4114020e-01
6.8364329e-01
5.8191622e-01
3.4644720e-01
5.3005625e-02
-1.8258733e-01
-3.2717501e-01
-4.1094079e-01
-4.3359808e-01
-3.7670374e-01
-2.4264684e-01
-3.7268758e-02
1.7187114e-01
2.4082476e-01
1.3830055e-01
-4.5677503e-02
-2.3615909e-01
-3.5575100e-01
-3.6120171e-01
-2.7325754e-01
-1.0390249e-01
9.2063477e-02
2.3921251e-01
3.2050973e-01
3.3411805e-01
3.0570013e-01
3.0895191e-01
3.5573706e-01
3.4064401e-01
1.8632235e-01
-4.8430213e-02
-2.3909772e-01
-3.4008431e-01
-3.7657578e-01
-3.5460899e-01
-2.6787001e-01
-1.1728383e-01
9.4572444e-02
3.0034604e-01
3.7281966e-01
2.9784965e-01
1.7516103e-01
9.4216212e-02
4.9853534e-02
-3.6709593e-02
-1.7305312e-01
-3.0907595e-01
-4.1878312e-01
-4.7797222e-01
-4.6815423e-01
-3.9313721e-01
-2.5061131e-01
-3.5889990e-02
1.8874494e-01
3.4882484e-01
4.3155175e-01
4.4571866e-01
4.2527607e-01
3.6581652e-01
2.4348316e-01
1.2597213e-01
6.1184423e-02
2.4853180e-02
-6.3856537e-03
-6.8506258e-02
-1.4953254e-01
-1.9227606e-01
-1.7828183e-01
-1.3107719e-01
-1.1211731e-01
-1.4625045e-01
-1.9630030e-01
-2.3686766e-01
-2.4730123e-01
-2.0412394e-01
-9.9556464e-02
7.0326546e-02
2.4548581e-01
3.0424702e-01
2.3100890e-01
1.3485236e-01
1.0349915e-01
1.5104927e-01
1.8203752e-01
1.1741814e-01
4.7569918e-02
4.7429723e-02
6.6782312e-02
3.4682752e-02
-4.8937263e-02
-1.3846205e-01
-2.1590640e-01
-2.6387175e-01
-2.6109506e-01
-2.1050134e-01
-1.1922133e-01
3.4193049e-03
1.4064379e-01
2.5268027e-01
2.7531077e-01
2.1187384e-01
1.3499967e-01
6.1808236e-02
-2.1966450e-02
-9.2117730e-02
-1.4170074e-01
-1.7760961e-01
-1.9266674e-01
-1.6755053e-01
-1.1858325e-01
-9.4789489e-02
-8.2242986e-02
-7.8547290e-02
-1.1874561e-01
-1.7246984e-01
-1.8877696e-01
-1.4907031e-01
-4.7323684e-02
9.1169945e-02
1.9217723e-01
2.5055973e-01
3.2176859e-01
4.0004901e-01
4.5004802e-01
4.0987072e-01
2.9584485e-01
1.8796856e-01
8.1778211e-02
-3.1805821e-02
-1.4284451e-01
-2.5021213e-01
-3.3371799e-01
-3.8456987e-01
-4.1555148e-01
-4.3569796e-01
-4.5128708e-01
-4.6801979e-01
-4.6172233e-01
-3.7086517e-01
-1.5426789e-01
1.3327800e-01
3.7682553e-01
5.2417400e-01
5.9710184e-01
6.3239887e-01
6.3014345e-01
5.6505040e-01
4.2659532e-01
2.1571251e-01
-4.1861404e-02
-2.7305465e-01
-3.9175835e-01
-3.7100586e-01
-2.6098969e-01
-1.1599921e-01
5.3831769e-02
1.7626106e-01
1.9924473e-01
1.6446589e-01
7.5160791e-02
-4.9910054e-02
-1.6426303e-01
-2.4960478e-01
-3.1215614e-01
-3.4770806e-01
-3.2392614e-01
-2.3034716e-01
-1.0074873e-01
-3.8559086e-03
9.5121817e-03
-4.8280320e-02
-9.2341349e-02
-3.2577020e-02
8.9763405e-02
1.5474852e-01
1.2610861e-01
8.5790857e-02
1.0793439e-01
1.4826918e-01
1.6798958e-01
2.0741582e-01
2.9146040e-01
3.5350046e-01
3.2450435e-01
2.6358391e-01
2.2269448e-01
1.2571477e-01
-3.8492525e-02
-1.5770909e-01
-1.8473232e-01
-1.4718989e-01
-8.9907906e-02
-7.5536649e-02
-1.0409552e-01
-1.2715397e-01
-1.4276617e-01
-1.6388992e-01
-1.6452238e-01
-1.5190186e-01
-1.7610902e-01
-2.2358738e-01
-2.6488269e-01
-3.1211456e-01
-3.6867155e-01
-3.9095486e-01
-3.2751093e-01
-1.6726649e-01
8.8571696e-03
1.5327901e-01
3.3695014e-01
5.4309307e-01
6.9629272e-01
7.6865275e-01
7.6380429e-01
6.9247267e-01
5.3322903e-01
2.7653965e-01
-3.2760944e-02
-3.0524987e-01
-4.6686231e-01
-5.3096897e-01
-5.4379329e-01
-5.2472116e-01
-4.8104930e-01
-4.1385192e-01
-3.2783112e-01
-2.2218510e-01
-1.0178152e-01
-2.0492978e-02
4.7917676e-03
5.5900038e-02
1.7995880e-01
2.9971888e-01
3.5796498e-01
3.8362404e-01
3.5073177e-01
2.6047679e-01
1.4923217e-01
-1.1282118e-02
-1.8330609e-01
-2.5614983e-01
-1.7660129e-01
2.6482223e-02
2.5777373e-01
3.9969309e-01
3.7549750e-01
2.0435909e-01
-8.5611865e-03
-1.6996795e-01
-2.5043869e-01
-2.6727562e-01
-2.3702130e-01
-1.6834075e-01
-8.5331025e-02
2.0000410e-03
6.9637372e-02
6.8104483e-02
1.3023389e-02
-3.0659433e-02
-3.8428049e-02
-3.8903362e-02
-4.3728067e-02
-4.1163959e-02
-2.2579695e-02
-7.2352083e-03
-3.1436340e-02
-7.5505274e-02
-1.0910281e-01
-1.2421881e-01
-9.6822397e-02
-2.1253941e-02
7.1070666e-02
1.6491831e-01
2.1345661e-01
1.5810630e-01
5.1300182e-02
-3.8802820e-02
-1.0513495e-01
-1.4786789e-01
-1.5693659e-01
-1.1901095e-01
-4.7509166e-02
4.4507570e-02
8.4311972e-02
2.3669843e-03
-9.9888269e-02
-1.3462465e-01
-1.5460044e-01
-2.1956117e-01
-2.7408592e-01
-2.2361205e-01
-4.5274410e-02
1.9898437e-01
4.2100278e-01
5.9203103e-01
6.7520216e-01
6.1239190e-01
4.2608379e-01
2.2682688e-01
7.4560290e-02
-7.2638379e-02
-2.3135356e-01
-3.5445654e-01
-4.1346368e-01
-4.1672584e-01
-3.8369950e-01
-3.3688304e-01
-2.8649300e-01
-2.2436276e-01
-1.2343195e-01
3.5376430e-02
2.3971421e-01
4.0275615e-01
3.8912495e-01
2.3311770e-01
1.0298469e-01
6.4971787e-02
4.1722560e-02
-4.3461673e-02
-1.1656250e-01
-1.0699352e-01
-9.3970785e-02
-1.3938050e-01
-1.6948634e-01
-1.2723910e-01
-5.3288385e-02
2.4335481e-02
9.9354563e-02
1.0610294e-01
1.2416510e-02
-1.0680388e-01
-1.9198464e-01
-2.2141802e-01
-1.9867664e-01
-1.3410352e-01
1.4055662e-03
1.9634720e-01
3.4128385e-01
3.6160187e-01
3.1814562e-01
2.3010359e-01
5.8237022e-02
-1.2925327e-01
-2.2425051e-01
-1.8091463e-01
-6.7806880e-02
3.2467582e-02
1.4074081e-01
2.3924819e-01
2.3208994e-01
1.3637418e-01
8.6055518e-02
1.0603765e-01
1.1096206e-01
5.9042493e-02
-2.5668090e-02
-1.0516837e-01
-1.7092979e-01
-2.0896910e-01
-2.2137246e-01
-2.4827090e-01
-2.9069498e-01
-3.2725721e-01
-3.4137475e-01
-3.0935400e-01
-2.2059357e-01
-7.4669738e-02
1.3697563e-01
3.9464998e-01
6.1377791e-01
6.9217295e-01
6.2671618e-01
4.5973326e-01
1.9895229e-01
-6.3066865e-02
-2.4109745e-01
-3.4863471e-01
-4.1160818e-01
-4.4073860e-01
-4.2962494e-01
-3.8019614e-01
-3.0508613e-01
-2.0459755e-01
-1.5951169e-01
-2.3449485e-01
-3.0525341e-01
-2.7071429e-01
-1.1491242e-01
1.1864042e-01
3.0719030e-01
4.0320311e-01
4.3804595e-01
4.4681880e-01
4.5667152e-01
4.8591099e-01
5.3881767e-01
5.8332034e-01
5.6706672e-01
4.6350608e-01
2.5860658e-01
-1.9714054e-02
-2.6717341e-01
-4.1255490e-01
-4.6393492e-01
-4.5446841e-01
-4.1841997e-01
-3.8408302e-01
-3.7040914e-01
-3.7776111e-01
-3.9551334e-01
-4.2157424e-01
-4.4786666e-01
-4.4636625e-01
-3.8276701e-01
-2.2919921e-01
4.4326366e-03
2.7300330e-01
5.1764854e-01
6.9098899e-01
8.0284057e-01
8.5801934e-01
8.2107082e-01
6.7145907e-01
4.1853461e-01
1.2832149e-01
-1.1852543e-01
-3.0238836e-01
-4.2076371e-01
-4.7443938e-01
-4.6693783e-01
-3.8994490e-01
-2.5889555e-01
-1.0141531e-01
1.5892802e-03
-1.9662199e-02
-9.6195526e-02
-1.5987657e-01
-2.0653820e-01
-2.1396116e-01
-1.4930244e-01
-3.5210232e-02
7.6113236e-02
1.8335161e-01
2.5272766e-01
1.9818920e-01
4.5978773e-02
-7.1888617e-02
-8.9268247e-02
-5.3453310e-02
-3.1514019e-02
5.6412274e-03
1.2632027e-01
3.0196802e-01
4.3184969e-01
4.3641804e-01
2.9431679e-01
6.9544246e-02
-1.3449932e-01
-2.4775783e-01
-2.5452119e-01
-2.0656283e-01
-1.4508550e-01
-6.2558314e-02
4.3195487e-02
1.0994866e-01
8.3789769e-02
2.2426168e-02
-2.4705615e-02
-6.7163548e-02
-9.7522893e-02
-1.0284558e-01
-1.0077217e-01
-1.1131551e-01
-1.2080213e-01
-1.0561087e-01
-8.0607384e-02
-7.0636464e-02
-7.0734435e-02
-6.8964236e-02
-4.4167895e-02
1.4848778e-02
1.0294445e-01
2.2117427e-01
2.8418364e-01
2.0945502e-01
8.8399533e-02
4.9801159e-03
-4.4709856e-02
-5.9199766e-02
-7.3577871e-02
-1.3248208e-01
-2.1250717e-01
-2.8696810e-01
-3.5573415e-01
-3.8674115e-01
-3.3361448e-01
-1.8977942e-01
3.2664549e-02
3.0727988e-01
5.4588853e-01
6.6027838e-01
6.5311606e-01
5.6981815e-01
4.0807968e-01
1.6212939e-01
-9.2286176e-02
-2.6866274e-01
-3.5592926e-01
-3.5826792e-01
-2.9649563e-01
-2.3760818e-01
-1.9467477e-01
-1.1749978e-01
-1.4216848e-02
6.3421043e-02
1.0350790e-01
1.2205939e-01
1.4527211e-01
2.0039362e-01
2.5967661e-01
2.3543831e-01
1.1907249e-01
-1.7863892e-02
-1.4191143e-01
-2.3003414e-01
-2.6710032e-01
-2.8182056e-01
-2.9584799e-01
-2.9919143e-01
-2.7684507e-01
-2.1674615e-01
-1.1702177e-01
-1.0177838e-02
1.0558183e-01
2.1749086e-01
2.7406934e-01
3.1634452e-01
3.8523180e-01
4.2650860e-01
3.7601947e-01
2.6744442e-01
1.3594129e-01
-1.7536082e-02
-1.5791031e-01
-2.5487614e-01
-2.9007634e-01
-2.8480596e-01
-2.7208983e-01
-2.5926553e-01
-2.2808286e-01
-1.5563030e-01
-4.7971456e-02
9.4966367e-02
2.3879747e-01
2.8785798e-01
2.0756239e-01
6.7944676e-02
-5.3593761e-02
-1.2806613e-01
-1.5453111e-01
-1.5905192e-01
-1.5355838e-01
-1.3352544e-01
-1.0929464e-01
-6.3848278e-02
-1.5138227e-02
-1.1159305e-02
-1.4271307e-02
3.3564679e-03
2.2251978e-02
2.7499430e-02
3.2536125e-02
8.9059484e-02
1.8556536e-01
2.7790782e-01
3.5781765e-01
4.1705526e-01
4.3766061e-01
4.0293148e-01
2.9010298e-01
9.7866405e-02
-1.1501945e-01
-2.8438723e-01
-3.8901702e-01
-4.3027802e-01
-4.2139777e-01
-3.7405920e-01
-2.9372369e-01
-1.8449152e-01
-5.0208062e-02
8.3498716e-02
1.9284080e-01
2.7909203e-01
3.3639124e-01
2.9541345e-01
1.2994573e-01
-4.7633151e-02
-1.6824415e-01
-2.4631161e-01
-2.7101136e-01
-2.3013472e-01
-1.6447666e-01
-1.2053206e-01
-1.2894840e-01
-1.7396181e-01
-1.6051961e-01
-3.3600124e-02
1.7104247e-01
3.2691522e-01
3.1208613e-01
1.9013182e-01
1.1407812e-01
1.4000652e-01
2.3113289e-01
2.9174573e-01
2.2046749e-01
4.7725792e-02
-8.7173231e-02
-1.1803638e-01
-1.0489065e-01
-1.4226793e-01
-2.2544115e-01
-2.7486250e-01
-2.3436761e-01
-1.4310336e-01
-1.1037372e-01
-1.4261765e-01
-1.5280132e-01
-7.0699394e-02
7.2495116e-02
1.9634435e-01
2.8318919e-01
3.5741085e-01
4.2153176e-01
4.1419841e-01
2.7554762e-01
3.3471939e-02
-1.8722514e-01
-2.9977092e-01
-3.1987931e-01
-2.8101714e-01
-1.8948948e-01
-7.4169211e-02
-2.3155266e-02
-7.9905424e-02
-1.6566488e-01
-1.7430367e-01
-7.4650056e-02
1.3242507e-01
3.8189358e-01
5.2918615e-01
5.0327385e-01
2.9598408e-01
-3.3377941e-02
-3.2182310e-01
-4.9057585e-01
-5.6780485e-01
-5.6983746e-01
-4.8072954e-01
-2.9922195e-01
-1.2186608e-01
-2.3007536e-02
7.9721959e-02
2.4391899e-01
4.0573100e-01
5.2473376e-01
6.2101658e-01
6.8804749e-01
6.8470622e-01
5.9311389e-01
4.0984666e-01
1.4793166e-01
-1.2111140e-01
-3.2205183e-01
-4.3808014e-01
-4.8302913e-01
-4.8252025e-01
-4.6176336e-01
-4.3473146e-01
-3.9613904e-01
-3.1824097e-01
-2.0970476e-01
-1.0507883e-01
-2.5217856e-03
7.7571824e-02
1.2571222e-01
2.0546048e-01
3.5443571e-01
4.9899797e-01
4.9401371e-01
3.1488596e-01
8.7806625e-02
-9.4151279e-02
-2.1981530e-01
-2.8554092e-01
-2.8782256e-01
-2.4922039e-01
-1.8573822e-01
-9.1982522e-02
-9.8271517e-03
1.7645698e-02
4.6559178e-02
1.1762066e-01
1.8562037e-01
1.9674031e-01
1.5855937e-01
1.1917952e-01
1.1156150e-01
1.1706899e-01
6.6529392e-02
-3.6146586e-02
-1.2519663e-01
-1.9557644e-01
-2.6139783e-01
-3.0330081e-01
-3.0293366e-01
-2.7006389e-01
-2.2253821e-01
-1.6243844e-01
-5.7661841e-02
1.0379575e-01
2.7730471e-01
4.3113693e-01
5.1897886e-01
4.7360846e-01
3.2163897e-01
1.5141479e-01
-2.3585102e-03
-1.2165224e-01
-1.8884276e-01
-2.2594765e-01
-2.5867265e-01
-2.7698816e-01
-2.6838524e-01
-2.1718547e-01
-1.3252053e-01
-5.9564291e-02
1.9185649e-02
1.0952542e-01
1.3895039e-01
8.2073274e-02
1.4112987e-02
1.0771917e-02
8.6080503e-02
1.8653869e-01
2.1509075e-01
1.7178181e-01
1.4863686e-01
1.2411595e-01
1.4234920e-02
-1.2733389e-01
-2.1171352e-01
-2.3655366e-01
-2.1051950e-01
-1.7986003e-01
-1.9769364e-01
-2.0587794e-01
-1.4718834e-01
4.6038239e-03
2.1546124e-01
3.2401577e-01
3.0218535e-01
2.9936165e-01
3.4957467e-01
3.3956534e-01
2.3206527e-01
8.3621322e-02
-8.9851506e-02
-2.5368073e-01
-3.4959829e-01
-3.8235607e-01
-3.8717384e-01
-3.9693328e-01
-4.1035335e-01
-3.8054236e-01
-2.7555084e-01
-8.6084061e-02
1.5923148e-01
3.7941711e-01
5.2184708e-01
5.6623039e-01
4.8175582e-01
2.9863604e-01
6.9478707e-02
-1.5077861e-01
-2.3124363e-01
-1.6858501e-01
-1.4541361e-01
-2.1878070e-01
-2.4375337e-01
-1.3986693e-01
4.8638686e-02
2.2416184e-01
2.7978850e-01
2.4923177e-01
1.8578291e-01
9.4035320e-02
4.4404212e-02
7.2793856e-02
1.4946326e-01
2.0086755e-01
1.6860802e-01
8.5289118e-02
1.1476732e-02
-5.0956017e-02
-1.3567300e-01
-2.2474069e-01
-2.9070066e-01
-3.3378294e-01
-3.6133646e-01
-3.7971288e-01
-3.8482778e-01
-3.6801113e-01
-3.1078457e-01
-1.8491620e-01
1.3002973e-02
2.7006186e-01
5.3498781e-01
6.9936925e-01
7.2013610e-01
5.9533276e-01
3.3194249e-01
1.6736433e-02
-2.5241211e-01
-4.1489215e-01
-4.6170318e-01
-4.1813717e-01
-2.9243507e-01
-9.6294801e-02
8.8932220e-02
1.4848615e-01
1.1565877e-01
8.1729160e-02
8.1455375e-02
1.4386053e-01
1.7312194e-01
1.0933115e-01
5.2467468e-02
5.4194776e-03
-9.0981319e-02
-1.8959574e-01
-2.2715500e-01
-1.9364552e-01
-8.9130320e-02
5.5120006e-02
1.8218825e-01
2.6662235e-01
2.9069057e-01
2.1092348e-01
4.1849434e-02
-1.4024670e-01
-3.1325693e-01
-4.6369934e-01
-5.4523406e-01
-5.2385231e-01
-3.7895959e-01
-1.1960612e-01
1.5150431e-01
2.8283879e-01
2.3972973e-01
1.2437487e-01
6.4631899e-02
1.2527256e-01
2.6939396e-01
4.1367958e-01
5.1182482e-01
5.2354884e-01
4.0071278e-01
1.7360772e-01
-4.6886403e-02
-1.8858020e-01
-2.3794140e-01
-2.0597799e-01
-1.4867444e-01
-1.0987317e-01
-9.9839336e-02
-1.1016984e-01
-1.0989938e-01
-8.5648640e-02
-3.6024041e-02
3.1829241e-02
9.6901129e-02
1.5978651e-01
1.8561065e-01
1.3021239e-01
4.0802862e-02
-4.1179279e-02
-1.2326620e-01
-2.0333874e-01
-2.6727439e-01
-3.0740841e-01
-3.3489180e-01
-3.6162856e-01
-3.7946849e-01
-3.7012036e-01
-3.1622855e-01
-1.8911320e-01
2.1033562e-03
2.0148901e-01
3.7091130e-01
4.6751793e-01
4.6329505e-01
3.8124231e-01
2.5084116e-01
1.1668098e-01
3.5612480e-02
7.5441145e-03
-4.5613019e-03
-2.5569129e-02
-6.6467354e-02
-9.1727601e-02
-8.1396510e-02
-5.2746092e-02
7.6965982e-03
1.1301272e-01
2.5956355e-01
4.1034970e-01
4.7569969e-01
4.2370214e-01
2.9672884e-01
1.1881022e-01
-6.9471955e-02
-2.1470883e-01
-3.0252150e-01
-3.4091809e-01
-3.5705228e-01
-3.7886714e-01
-4.0124292e-01
-3.9321219e-01
-3.2213636e-01
-1.8437976e-01
-6.4989421e-03
1.5656388e-01
2.7894497e-01
4.0142810e-01
4.9598062e-01
4.6217733e-01
2.7868982e-01
4.1478842e-02
-1.2609280e-01
-1.9600539e-01
-2.2335873e-01
-2.5190416e-01
-2.9137620e-01
-3.3011011e-01
-3.6240017e-01
-3.9536529e-01
-4.1139888e-01
-3.5771319e-01
-1.9787795e-01
-1.5624258e-04
1.1520619e-01
1.6890712e-01
2.6360799e-01
3.8946804e-01
4.6848849e-01
4.3716054e-01
2.9316855e-01
1.7522056e-01
2.3730138e-01
4.1357603e-01
5.2194918e-01
4.8956270e-01
3.3585911e-01
1.0197613e-01
-1.3907784e-01
-3.1117086e-01
-4.0722906e-01
-4.5950936e-01
-4.9338392e-01
-5.2777669e-01
-5.6506366e-01
-5.8963049e-01
-5.7574560e-01
-4.9356477e-01
-3.2062918e-01
-3.4547892e-02
3.3003888e-01
6.5080550e-01
8.4889275e-01
9.0209225e-01
7.9499026e-01
5.8631979e-01
3.2962266e-01
4.9976418e-02
-1.6243414e-01
-2.6528521e-01
-3.0423365e-01
-3.3405816e-01
-3.9426515e-01
-4.8964231e-01
-5.8644206e-01
-6.3949421e-01
-5.9838377e-01
-4.3984700e-01
-2.0609051e-01
3.4183121e-02
2.2750307e-01
3.6286780e-01
4.6538196e-01
5.3446064e-01
5.3748973e-01
4.9270500e-01
4.4783208e-01
4.0775709e-01
3.5482861e-01
2.6646400e-01
1.3507283e-01
5.0586184e-02
7.3702706e-02
1.0470480e-01
3.4064941e-02
-1.3439939e-01
-2.8764041e-01
-3.5454517e-01
-3.6127930e-01
-3.4076897e-01
-3.0582075e-01
-2.4999691e-01
-1.8494522e-01
-1.4890864e-01
-1.4364816e-01
-1.3770158e-01
-1.0340569e-01
-4.5507938e-02
2.8422049e-03
4.5208675e-02
4.8229986e-02
-3.4998543e-02
-1.3151889e-01
-1.5724901e-01
-1.0235055e-01
1.7406724e-02
1.3765906e-01
1.7531039e-01
1.1602174e-01
-5.0292698e-03
-1.2802163e-01
-1.8839777e-01
-1.2315891e-01
1.0190860e-01
3.8242864e-01
5.8237878e-01
6.8275601e-01
6.8591907e-01
5.5130641e-01
2.7369337e-01
-5.5196639e-02
-3.4163842e-01
-5.6455881e-01
-7.2780794e-01
-8.2842994e-01
-8.3865175e-01
-7.1530786e-01
-4.5195717e-01
-1.1841962e-01
1.7534504e-01
3.7979922e-01
5.2579372e-01
6.4139311e-01
7.0103790e-01
6.7086032e-01
5.7293863e-01
4.3963402e-01
2.4575689e-01
-9.2853817e-03
-2.6132762e-01
-4.6872546e-01
-6.0079258e-01
-6.2545783e-01
-5.3980734e-01
-3.5482317e-01
-8.0950358e-02
2.3417758e-01
5.0354938e-01
6.6024467e-01
6.6159560e-01
5.1503501e-01
2.7779668e-01
9.8034708e-03
-2.3403696e-01
-4.1642442e-01
-5.1259208e-01
-5.0655766e-01
-4.1134524e-01
-2.5239464e-01
-8.7418769e-02
1.1658429e-04
2.5407540e-03
-1.0548039e-02
2.1866241e-02
1.0425897e-01
2.0204056e-01
2.5920442e-01
2.6222520e-01
2.7664500e-01
2.7373829e-01
1.6248837e-01
5.9286318e-04
-1.1031724e-01
-1.6695178e-01
-1.9959641e-01
-2.0681539e-01
-1.8876030e-01
-1.7306004e-01
-1.6253721e-01
-1.4630606e-01
-1.1697964e-01
-5.3066396e-02
5.1153495e-02
1.8921881e-01
3.0245602e-01
3.0272128e-01
2.1407082e-01
1.1570033e-01
2.8548212e-02
-6.0775263e-02
-1.4238198e-01
-1.9457287e-01
-2.3889238e-01
-2.9586560e-01
-3.4918012e-01
-3.6593445e-01
-3.2892982e-01
-2.4185983e-01
-9.5441191e-02
1.3352399e-01
3.9363645e-01
5.5584077e-01
5.8563668e-01
5.2714000e-01
3.8243247e-01
2.0631471e-01
5.9114230e-02
-9.5351833e-02
-2.3882171e-01
-3.1414472e-01
-3.1356034e-01
-2.4009793e-01
-9.6382322e-02
9.6947104e-02
2.3042170e-01
1.9996726e-01
6.7866185e-02
-6.2286795e-02
-1.5939880e-01
-2.2956849e-01
-2.7843011e-01
-2.9147362e-01
-2.5513863e-01
-1.6467648e-01
-1.6449020e-02
1.3716587e-01
2.3672318e-01
3.3052938e-01
4.2542850e-01
4.2874924e-01
3.1373489e-01
1.3736355e-01
-3.5228121e-02
-1.6916125e-01
-2.5436692e-01
-2.7516435e-01
-2.2950079e-01
-1.3685548e-01
-7.1768546e-03
1.1985820e-01
1.6307644e-01
1.0611528e-01
1.2168390e-02
-8.3349996e-02
-1.7822902e-01
-2.4210053e-01
-2.4847465e-01
-2.1172435e-01
-1.5141146e-01
-4.4943116e-02
6.8272823e-02
9.0029993e-02
5.6417409e-02
5.4783416e-02
1.2635436e-01
2.6485720e-01
3.5619761e-01
3.3374642e-01
2.9315517e-01
2.7314197e-01
1.8326432e-01
6.8021792e-03
-1.7401772e-01
-3.1025549e-01
-3.8901936e-01
-4.0301913e-01
-3.6331329e-01
-2.9246519e-01
-2.0057325e-01
-1.0161069e-01
-1.7867407e-02
6.4099300e-02
1.7394620e-01
3.1927222e-01
4.3114614e-01
4.0539881e-01
2.6143332e-01
1.1746035e-01
1.3299761e-02
-7.9800479e-02
-1.5715949e-01
-1.9049926e-01
-1.6188190e-01
-7.8979823e-02
-1.1378410e-04
7.2838518e-03
-4.0304162e-02
