-1.8084503e-01
-3.6886878e-01
-4.9873756e-01
-5.7623652e-01
-6.2766117e-01
-6.5880847e-01
-6.7473237e-01
-6.6015648e-01
-6.1821658e-01
-5.7146734e-01
-5.2397736e-01
-4.7939080e-01
-4.2033268e-01
-3.4906910e-01
-2.8743258e-01
-2.3715055e-01
-1.9955094e-01
-1.5552178e-01
-1.0454111e-01
-6.5782032e-02
-4.0820623e-02
-3.1396098e-02
-1.7823024e-02
5.0238526e-03
2.2029207e-02
2.7722530e-02
1.7537567e-02
1.0470315e-02
1.6517035e-02
2.8855531e-02
3.8322101e-02
3.4050499e-02
3.4538814e-02
4.3342666e-02
4.5962104e-02
3.7668070e-02
1.2946227e-02
-1.0048636e-02
-2.0472228e-02
-2.3936106e-02
-3.1051615e-02
-5.4006281e-02
-7.2691382e-02
-7.1826871e-02
-5.5445077e-02
-3.9206822e-02
-3.9008795e-02
-3.6730286e-02
-2.6296813e-02
-1.7119125e-02
-1.5134886e-02
-2.8642159e-02
-4.1337478e-02
-3.9864172e-02
-2.2837968e-02
-2.4218462e-03
5.0146350e-03
3.6651104e-03
-3.1587118e-03
-3.0065293e-04
9.5428119e-03
7.8262023e-03
2.5399560e-03
1.7409814e-04
1.1819123e-02
3.1649502e-02
4.1610366e-02
4.2638860e-02
3.4391313e-02
3.5260334e-02
4.6083805e-02
4.8022512e-02
4.1140146e-02
2.6027694e-02
2.2500765e-02
3.0448621e-02
3.0332416e-02
2.2254383e-02
6.5269491e-03
3.3117714e-03
1.2270845e-02
1.3215198e-02
6.3463736e-03
-8.1476772e-03
-1.0624472e-02
-1.2912103e-03
1.1174587e-04
-5.9636644e-03
-1.8967729e-02
-1.9366729e-02
-7.2590339e-03
-1.6745333e-03
-3.2731239e-03
-1.3432715e-02
-1.2519247e-02
-3.4216776e-04
3.5372382e-03
-5.0991101e-04
-1.2441541e-02
-1.2621368e-02
-5.5150766e-04
4.3633124e-03
1.5093950e-03
-9.7774974e-03
-9.9670391e-03
2.7759973e-03
1.0493591e-02
1.1413174e-02
4.2794146e-03
8.9008445e-03
2.5811568e-02
3.6500164e-02
4.0325228e-02
3.6415840e-02
4.4175953e-02
6.3520046e-02
7.4794539e-02
7.6312712e-02
6.6710746e-02
6.5732751e-02
7.6960394e-02
8.4681205e-02
8.4728521e-02
7.2017577e-02
5.9891805e-02
5.0573892e-02
3.7650919e-02
1.7186102e-02
-2.0313837e-02
-5.5431305e-02
-7.1842829e-02
-7.3058035e-02
-7.6264648e-02
-9.8345333e-02
-1.1995541e-01
-1.2389771e-01
-1.1167919e-01
-1.0150288e-01
-1.1211303e-01
-1.2469915e-01
-1.2339456e-01
-1.1009818e-01
-1.0030183e-01
-1.1051239e-01
-1.2154318e-01
-1.1509783e-01
-9.0942506e-02
-6.7043238e-02
-6.1874434e-02
-5.5677189e-02
-3.2163340e-02
7.4646524e-03
4.8492952e-02
7.4506347e-02
8.6529718e-02
8.5846974e-02
9.2548384e-02
1.0642737e-01
1.0798497e-01
1.0075624e-01
8.7607822e-02
8.6047496e-02
9.3448907e-02
8.9574865e-02
7.5204925e-02
5.1111801e-02
3.7538894e-02
3.5131091e-02
2.4167240e-02
4.9917568e-03
-2.2230458e-02
-3.9048370e-02
-4.6058957e-02
-6.2698749e-02
-7.7289340e-02
-7.8728186e-02
-5.9209025e-02
-2.9715813e-02
-9.6430919e-03
1.6123540e-03
4.6956571e-03
1.8715259e-02
4.2455042e-02
5.5750355e-02
5.9534875e-02
5.3886370e-02
5.7623900e-02
7.0470306e-02
7.2325388e-02
6.3173795e-02
4.3238423e-02
3.2671580e-02
3.1483434e-02
1.9139054e-02
-4.2976531e-03
-3.8617845e-02
-6.4748275e-02
-8.0850450e-02
-1.0384290e-01
-1.1985723e-01
-1.1520272e-01
-8.5679308e-02
-4.7933602e-02
-2.2509660e-02
-9.1763442e-03
-7.3676650e-03
3.1575317e-03
2.2639046e-02
3.1523511e-02
2.9917491e-02
1.7735713e-02
1.4967919e-02
2.6148295e-02
3.5475863e-02
3.8840685e-02
3.2754792e-02
3.6809495e-02
4.9988249e-02
5.2097957e-02
4.2749958e-02
2.1657004e-02
8.9324688e-03
8.4260694e-03
4.5571929e-03
-7.1394571e-04
-6.0957801e-03
-1.7145276e-03
3.9811802e-03
-3.5430196e-03
-2.1849381e-02
-5.2185526e-02
-7.6575824e-02
-8.2300090e-02
-7.2083915e-02
-5.8912834e-02
-5.8034523e-02
-5.7121310e-02
-4.6269549e-02
-1.9792774e-02
1.2720951e-02
3.3376543e-02
4.9899181e-02
5.9973082e-02
6.5776065e-02
7.0315667e-02
6.4277920e-02
5.1388442e-02
3.1572875e-02
1.7529597e-02
9.3171985e-03
-9.4345940e-03
-2.9992586e-02
-4.5028347e-02
-4.4582750e-02
-3.6050062e-02
-3.8474483e-02
-4.0452958e-02
-3.2646338e-02
-8.9409752e-03
2.2142331e-02
4.3704732e-02
5.7137779e-02
5.9179019e-02
6.3300554e-02
7.1721595e-02
6.8619147e-02
5.4863166e-02
3.0539929e-02
1.4496493e-02
6.7421792e-03
-1.2747249e-02
-4.3279137e-02
-8.3782125e-02
-1.1529273e-01
-1.2092547e-01
-1.0287994e-01
-7.7944926e-02
-6.2955220e-02
-3.9238151e-02
-6.5927989e-03
1.6845960e-02
3.0904552e-02
3.3845207e-02
4.4748814e-02
6.6180917e-02
7.9898069e-02
8.3784811e-02
7.6302318e-02
7.7650580e-02
9.0688009e-02
9.7390379e-02
9.3742333e-02
7.6232459e-02
6.4807315e-02
6.0767795e-02
4.5375299e-02
1.7142674e-02
-2.5572018e-02
-6.3119298e-02
-7.7312674e-02
-6.9627281e-02
-5.8442746e-02
-6.2788871e-02
-6.4762676e-02
-5.7505223e-02
-5.1683337e-02
-5.2987600e-02
-6.8213663e-02
-7.9407991e-02
-7.0027177e-02
-4.1529305e-02
-1.0997901e-02
4.1029715e-03
2.0399548e-02
4.3538202e-02
6.4270653e-02
7.5778174e-02
6.9549597e-02
6.4880727e-02
6.6376324e-02
6.0480253e-02
4.2005870e-02
5.0399006e-03
-3.1117725e-02
-4.8867873e-02
-4.9038710e-02
-4.9706818e-02
-6.9761054e-02
-9.0280986e-02
-9.5219348e-02
-8.6399538e-02
-8.0457734e-02
-9.4979129e-02
-1.1088985e-01
-1.1002897e-01
-9.1028543e-02
-7.0934016e-02
-6.8850472e-02
-6.9097333e-02
-5.5537298e-02
-2.2605155e-02
1.5307772e-02
3.8944241e-02
4.9726668e-02
4.9244179e-02
5.6699966e-02
7.1718721e-02
7.5743060e-02
7.0896649e-02
5.7724245e-02
5.4244033e-02
6.0343381e-02
5.6891776e-02
4.5728831e-02
2.8692706e-02
2.4219069e-02
3.1189903e-02
2.9813023e-02
2.1280510e-02
6.3825133e-03
3.4626709e-03
1.2550171e-02
1.4717332e-02
9.7116006e-03
-3.8854298e-03
-7.2807269e-03
1.1722945e-03
2.8538137e-03
-2.2221080e-03
-1.3608958e-02
-1.1559315e-02
5.2427582e-03
1.8446136e-02
2.7569283e-02
2.4942129e-02
2.1873259e-02
2.5668856e-02
2.4996238e-02
1.8462016e-02
4.5528145e-03
3.1032512e-03
1.4592765e-02
1.9457102e-02
1.7038830e-02
6.5154134e-03
7.5139473e-03
1.9742381e-02
2.2945668e-02
1.7818748e-02
5.1803455e-03
4.3312520e-03
1.6239158e-02
2.2424724e-02
2.0538557e-02
7.6828257e-03
3.2933636e-03
9.2572237e-03
7.2853659e-03
-4.3948807e-03
-2.7740288e-02
-4.2999722e-02
-4.6112084e-02
-5.2827246e-02
-6.7316974e-02
-9.4010428e-02
-1.1302430e-01
-1.1703778e-01
-1.1833363e-01
-1.2349152e-01
-1.3926725e-01
-1.4555005e-01
-1.3972809e-01
-1.3823150e-01
-1.4252460e-01
-1.5464140e-01
-1.5492734e-01
-1.2819634e-01
-7.6166967e-02
-1.1392969e-02
5.1403044e-02
1.1523911e-01
1.6310260e-01
1.9173268e-01
2.1816858e-01
2.3809658e-01
2.4715036e-01
2.3336181e-01
2.0335333e-01
1.7652885e-01
1.5314356e-01
1.3299054e-01
9.7023840e-02
4.6547892e-02
1.8763580e-03
-3.6891616e-02
-6.9295471e-02
-1.1280556e-01
-1.6603960e-01
-2.1122297e-01
-2.4978257e-01
-2.8106280e-01
-3.0433346e-01
-2.9981024e-01
-2.6706189e-01
-2.2490696e-01
-1.7133438e-01
-1.2030656e-01
-6.9424918e-02
-3.9394132e-03
7.1592646e-02
1.5628953e-01
2.3443370e-01
2.9329045e-01
3.3630024e-01
3.6728895e-01
3.8970001e-01
3.9737189e-01
3.8674774e-01
3.6049291e-01
3.2701353e-01
2.9342692e-01
2.4840258e-01
1.9221293e-01
1.3472354e-01
8.2656431e-02
4.2898784e-02
-1.1906878e-03
-4.7077336e-02
-8.1119803e-02
-1.0901860e-01
-1.3229590e-01
-1.5461188e-01
-1.6045572e-01
-1.4944151e-01
-1.4418622e-01
-1.4976635e-01
-1.6396525e-01
-1.6472301e-01
-1.4910190e-01
-1.3377326e-01
-1.2246070e-01
-1.1920318e-01
-1.0557469e-01
-8.0054428e-02
-6.0014811e-02
-4.7559763e-02
-4.4662480e-02
-3.1603579e-02
-7.0230918e-03
1.0998487e-02
2.0851261e-02
2.0936217e-02
3.0438486e-02
4.9429063e-02
5.8671202e-02
5.7686363e-02
4.6137269e-02
4.2901119e-02
4.7672072e-02
4.1727942e-02
2.4948296e-02
-3.4403690e-03
-2.5065181e-02
-2.9907217e-02
-2.6025927e-02
-2.3927352e-02
-3.4440497e-02
-3.9033951e-02
-3.5587485e-02
-3.9503508e-02
-5.3432501e-02
-8.0911844e-02
-1.0426607e-01
-1.0731517e-01
-8.9817115e-02
-6.7839604e-02
-5.9091601e-02
-4.9793472e-02
-3.6090243e-02
-2.1636984e-02
-9.4673689e-03
-8.1706008e-03
-1.5355534e-03
1.5211729e-02
3.3518761e-02
4.7939020e-02
5.2429935e-02
5.4245368e-02
4.9202092e-02
4.1066003e-02
3.3420613e-02
1.6931918e-02
7.1222431e-03
9.3382240e-03
1.9207577e-02
3.2059775e-02
3.7820961e-02
3.6123348e-02
2.5006623e-02
2.2739159e-02
3.1071489e-02
3.1331185e-02
2.3288459e-02
7.1166884e-03
2.6786857e-03
1.0435661e-02
1.0962990e-02
5.6945996e-03
-6.2513708e-03
-8.7554021e-03
-4.0918943e-04
1.3468998e-03
-4.1190052e-03
-1.7389962e-02
-1.9256055e-02
-9.3944375e-03
-6.8644817e-03
-1.1625062e-02
-2.3335701e-02
-2.1968492e-02
-8.5183920e-03
-3.4377608e-03
-6.5455430e-03
-1.7882778e-02
-1.7162043e-02
-3.7888958e-03
2.0448626e-03
1.4407196e-04
-9.0316689e-03
-5.4836519e-03
1.0678135e-02
1.9837876e-02
2.2150098e-02
1.7306428e-02
2.1091342e-02
3.0194577e-02
2.8549908e-02
1.9617606e-02
3.6637094e-03
3.7500277e-04
9.4488566e-03
1.0745087e-02
4.3131962e-03
-9.5511023e-03
-1.1147097e-02
1.0258973e-03
8.6942416e-03
1.0103768e-02
3.7098115e-03
9.3159178e-03
2.6385827e-02
3.4706108e-02
3.4009763e-02
2.3700972e-02
2.3440799e-02
3.4746862e-02
3.9153391e-02
3.5557426e-02
2.2561982e-02
1.9020948e-02
2.7143437e-02
2.9934126e-02
2.4398559e-02
7.4956228e-03
-1.4754383e-03
-1.1665526e-03
-9.7909087e-03
-2.9444666e-02
-6.2289407e-02
-8.8812744e-02
-9.8662583e-02
-1.0143818e-01
-1.0756175e-01
-1.2714543e-01
-1.4039824e-01
-1.3313246e-01
-1.1067815e-01
-8.6911830e-02
-7.5921408e-02
-6.3540964e-02
-4.1454754e-02
-9.3498678e-03
2.6248421e-02
5.2423722e-02
7.5801598e-02
8.8861231e-02
9.0017572e-02
8.7700854e-02
7.7803507e-02
6.8837331e-02
6.1416032e-02
5.9242271e-02
6.1719463e-02
5.6750579e-02
4.6271314e-02
2.9503574e-02
2.1378276e-02
2.3223949e-02
1.8710283e-02
8.9892326e-03
-6.4592418e-03
-1.0847168e-02
-3.7312190e-03
-3.1468074e-03
-9.2232262e-03
-2.2341056e-02
-2.3663730e-02
-1.2869260e-02
-8.9546168e-03
-1.2094998e-02
-2.2495589e-02
-2.0764978e-02
-6.5889904e-03
6.4470185e-04
8.1932369e-05
-9.0821130e-03
-7.0032544e-03
6.3333888e-03
1.1075384e-02
7.9953750e-03
-2.5433198e-03
-1.6954385e-03
1.0148849e-02
1.3378726e-02
8.0649059e-03
-5.2563701e-03
-6.2983480e-03
5.0023304e-03
8.5856312e-03
4.2687373e-03
-7.7165615e-03
-7.4746057e-03
4.7257774e-03
8.7626318e-03
4.9133938e-03
-6.6586569e-03
-6.6040542e-03
5.1469446e-03
8.4351700e-03
2.8125996e-03
-1.1310031e-02
-1.4102244e-02
-4.8567643e-03
-2.4472584e-03
-7.2381431e-03
-1.9469213e-02
-1.9563498e-02
-6.9054118e-03
-6.5261893e-04
-2.0471042e-03
-1.1959721e-02
-1.0877194e-02
1.7408076e-03
7.1506674e-03
5.0951180e-03
-5.0975144e-03
-3.6935303e-03
1.0656718e-02
1.9074006e-02
2.0486060e-02
1.4162196e-02
1.9597697e-02
3.6879342e-02
4.6648426e-02
4.8494273e-02
4.1928621e-02
4.4284928e-02
5.4398993e-02
5.5311402e-02
4.8105250e-02
3.2461142e-02
2.6896579e-02
3.4273628e-02
3.9275720e-02
3.7038468e-02
2.2364367e-02
1.4298014e-02
1.3194955e-02
1.7295162e-04
-2.5321570e-02
-6.3731219e-02
-9.5206636e-02
-1.0643702e-01
-1.0447311e-01
-1.0334554e-01
-1.1646786e-01
-1.2805079e-01
-1.2345157e-01
-1.0026055e-01
-7.3035210e-02
-6.0124481e-02
-4.9780261e-02
-3.5537466e-02
-1.4996345e-02
6.2943674e-03
1.4920680e-02
1.6088440e-02
1.4032423e-02
2.2588987e-02
3.8394610e-02
4.3483018e-02
3.8817313e-02
2.3969534e-02
1.7187045e-02
1.9676232e-02
1.3195735e-02
-7.8446528e-04
-2.1715732e-02
-3.1554134e-02
-1.5182577e-02
2.3485456e-02
6.9677207e-02
1.0255712e-01
1.3607742e-01
1.7665916e-01
2.0981614e-01
2.3461287e-01
2.3750042e-01
2.2368969e-01
2.0504910e-01
1.7461743e-01
1.3232992e-01
7.7845750e-02
2.9353819e-02
-1.4647485e-02
-7.4526247e-02
-1.4305291e-01
-2.1322227e-01
-2.7377400e-01
-3.1671117e-01
-3.4581826e-01
-3.5811672e-01
-3.5043316e-01
-3.2197828e-01
-2.7227002e-01
-2.0114115e-01
-1.2756875e-01
-7.0705839e-02
-1.0333588e-02
5.3959135e-02
1.0280343e-01
1.3676677e-01
1.5633792e-01
1.8176050e-01
2.1384805e-01
2.3330622e-01
2.4025360e-01
2.3482927e-01
2.3677026e-01
2.4649312e-01
2.4425764e-01
2.2967500e-01
2.0201490e-01
1.7923629e-01
1.6746180e-01
1.5353586e-01
1.2923294e-01
8.5831265e-02
4.0101935e-02
3.5727894e-03
-2.9759792e-02
-6.5811824e-02
-1.1131902e-01
-1.5559452e-01
-1.8821488e-01
-2.1059197e-01
-2.2400115e-01
-2.2951226e-01
-2.2790976e-01
-2.1933072e-01
-2.0382702e-01
-1.8297337e-01
-1.5826576e-01
-1.2945903e-01
-9.6573074e-02
-6.0107277e-02
-3.4820688e-02
-3.4946386e-02
-4.4686158e-02
-4.9265186e-02
-4.8762198e-02
-4.5030030e-02
-4.0027222e-02
-2.9575500e-02
-1.2322080e-02
9.3220565e-03
2.3304077e-02
1.7784418e-02
8.4337090e-03
1.0824342e-02
2.5432609e-02
3.4288746e-02
1.9494433e-02
9.2801028e-04
-2.7739055e-03
7.8320670e-03
1.4413729e-02
-1.3225692e-03
-1.8902685e-02
-1.8459949e-02
2.3178367e-04
1.8125665e-02
1.6271625e-02
1.5426307e-02
3.5332115e-02
7.5986816e-02
1.1825699e-01
1.4232000e-01
1.5276339e-01
1.5306058e-01
1.5715112e-01
1.6193716e-01
1.4880701e-01
1.3223386e-01
1.2659226e-01
1.3656036e-01
1.4689080e-01
1.3675399e-01
1.1568903e-01
9.3012719e-02
7.6596331e-02
5.5050217e-02
8.0070501e-03
-4.6342981e-02
-9.0275343e-02
-1.2386021e-01
-1.5275092e-01
-1.8359717e-01
-2.1180081e-01
-2.3290817e-01
-2.4681337e-01
-2.5375571e-01
-2.5456281e-01
-2.4831528e-01
-2.3504041e-01
-2.1532125e-01
-1.9355779e-01
-1.7416905e-01
-1.5280960e-01
-1.2511187e-01
-8.7686877e-02
-4.7970038e-02
-1.5977181e-02
1.0732498e-02
3.4360136e-02
6.5473809e-02
9.7965921e-02
1.1571486e-01
1.1711942e-01
1.0114759e-01
9.0008264e-02
9.3434236e-02
9.9831613e-02
1.0191436e-01
9.2546300e-02
9.1674826e-02
9.9532445e-02
9.6904063e-02
8.5117658e-02
6.4931916e-02
5.5931859e-02
5.8813391e-02
5.4607610e-02
4.3268108e-02
2.4618257e-02
1.8429590e-02
2.4477828e-02
2.2928756e-02
1.4526272e-02
-4.6042384e-04
-2.9396228e-03
6.5607097e-03
8.5536338e-03
3.6614855e-03
-8.3561779e-03
-7.9340496e-03
4.8751202e-03
9.7072533e-03
7.0545140e-03
-2.0218842e-03
1.9547553e-03
1.8168813e-02
2.6709648e-02
2.7446079e-02
1.8660912e-02
1.8938541e-02
3.0478972e-02
3.5290172e-02
3.2830939e-02
2.2355401e-02
2.2910426e-02
3.4022782e-02
3.5652343e-02
2.7360233e-02
8.7819193e-03
-5.5456769e-04
3.4778689e-03
5.4171942e-03
1.0863353e-03
-1.3863933e-02
-2.0062253e-02
-1.4169321e-02
-1.2572733e-02
-1.9468333e-02
-3.8877471e-02
-5.1265713e-02
-4.5027962e-02
-2.8072476e-02
-1.3152122e-02
-1.3317579e-02
-9.6112623e-03
9.5419071e-03
3.7471952e-02
6.2509703e-02
7.1527023e-02
8.2996906e-02
9.7256797e-02
9.5764264e-02
7.7066095e-02
3.9747035e-02
3.0382421e-03
-1.6365768e-02
-1.9716077e-02
-2.4132091e-02
-4.8555923e-02
-7.3903940e-02
-8.0264459e-02
-6.7432674e-02
-5.5428209e-02
-6.4496172e-02
-7.5180303e-02
-7.0351704e-02
-5.2506339e-02
-4.0135735e-02
-5.2570728e-02
-6.9812032e-02
-7.1244974e-02
-5.7359728e-02
-4.7117086e-02
-5.8998938e-02
-7.4338163e-02
-7.6246254e-02
-6.4512404e-02
-5.5712566e-02
-6.7945008e-02
-8.3018801e-02
-8.3073890e-02
-6.5246414e-02
-4.6066197e-02
-4.4736842e-02
-4.3307692e-02
-2.4682584e-02
1.3862596e-02
5.6682225e-02
8.5187291e-02
1.0374151e-01
1.1116137e-01
1.1871053e-01
1.2857570e-01
1.2385874e-01
1.0295245e-01
6.9521176e-02
4.5565349e-02
3.1641514e-02
9.0074103e-03
-1.2944384e-02
-2.6052669e-02
-2.0845468e-02
-5.3029478e-03
1.9757051e-03
1.7315433e-03
-5.8098447e-03
-1.7569176e-03
1.3800690e-02
2.1237663e-02
2.0248440e-02
1.0192795e-02
1.0531546e-02
2.1459934e-02
2.3474411e-02
1.7438588e-02
3.4508625e-03
8.9559711e-04
1.0055135e-02
1.1106700e-02
3.8457176e-03
-1.1440214e-02
-1.4467157e-02
-5.1819233e-03
-3.4340594e-03
-8.7604202e-03
-2.0880725e-02
-2.0229691e-02
-7.0289888e-03
-1.2676681e-03
-3.2045392e-03
-1.3042108e-02
-1.0687367e-02
3.8039591e-03
1.0016762e-02
7.8193817e-03
-2.6672328e-03
-1.1323437e-03
1.2560527e-02
1.8112828e-02
1.5789703e-02
6.3253139e-03
9.8007449e-03
2.5398745e-02
3.0132887e-02
2.2317238e-02
5.1687397e-03
3.5377482e-04
6.9716473e-03
5.5579018e-03
-3.4527549e-03
-2.0051455e-02
-2.3989937e-02
-1.4487601e-02
-1.1069690e-02
-1.4592908e-02
-2.5494574e-02
-2.3888475e-02
-9.2969895e-03
-9.2760143e-04
1.6021983e-04
-7.2473102e-03
-3.2147309e-03
1.3024016e-02
2.2297190e-02
2.3802353e-02
1.6521319e-02
2.0597392e-02
3.6113577e-02
4.2472012e-02
3.8794656e-02
2.5251154e-02
2.2864238e-02
3.2342976e-02
3.3844289e-02
2.7509773e-02
1.3537412e-02
1.0915616e-02
1.9521001e-02
2.0138812e-02
1.1406544e-02
-8.0857619e-03
-1.8442824e-02
-1.1531459e-02
4.1884399e-04
8.8594816e-03
5.4469923e-03
9.8613123e-03
2.2615774e-02
2.3975797e-02
1.2431057e-02
-1.3299135e-02
-3.4337591e-02
-3.8339579e-02
-3.0989543e-02
-2.4761135e-02
-3.3344654e-02
-3.7343073e-02
-3.1560878e-02
-3.0323226e-02
-3.9633475e-02
-6.5338399e-02
-8.7200256e-02
-9.0515322e-02
-8.0254461e-02
-7.0759559e-02
-7.6499837e-02
-7.6823307e-02
-5.7235197e-02
-2.3818526e-02
8.9987959e-03
2.6957364e-02
4.9466221e-02
7.7651445e-02
9.4269396e-02
9.8959975e-02
9.0343106e-02
8.4359626e-02
8.1940266e-02
7.1463337e-02
5.1491624e-02
1.7756313e-02
-1.2954887e-02
-2.5913336e-02
-1.8912001e-02
-6.4567626e-03
-6.5499477e-03
-8.7480703e-04
1.3656586e-02
2.3254035e-02
2.3986453e-02
1.0602088e-02
-2.5234742e-03
-6.7155711e-03
-2.7444411e-03
2.2936067e-04
-1.1916671e-02
-2.3431680e-02
-2.5916198e-02
-2.2695346e-02
-2.2466298e-02
-3.7914812e-02
-5.4523930e-02
-6.2832094e-02
-6.4100446e-02
-6.9078180e-02
-9.0584632e-02
-1.1089711e-01
-1.1541656e-01
-1.0118857e-01
-8.2544279e-02
-7.8148653e-02
-7.2239547e-02
-5.0050146e-02
-7.4184686e-03
4.2121391e-02
8.0022163e-02
1.0898611e-01
1.1871669e-01
1.1434018e-01
1.0750891e-01
9.2122434e-02
7.5404441e-02
6.0084674e-02
5.4690163e-02
5.6656994e-02
5.0826355e-02
3.8509276e-02
2.0430242e-02
1.4668461e-02
2.0349394e-02
1.8298553e-02
9.3832620e-03
-7.1320058e-03
-1.3921265e-02
-1.1158972e-02
-1.7603539e-02
-2.9423685e-02
-4.3292579e-02
-4.2976499e-02
-3.1963355e-02
-3.0328081e-02
-3.4465960e-02
-4.0473991e-02
-3.1378578e-02
-1.0815775e-02
7.4310879e-04
3.1523119e-03
-3.6484439e-03
4.8205608e-04
1.6078385e-02
2.3664371e-02
2.3865754e-02
1.7166948e-02
2.2216580e-02
3.6999026e-02
4.1612121e-02
3.7336742e-02
2.4116915e-02
2.1125088e-02
2.8915803e-02
2.8238766e-02
1.8616578e-02
-1.7486685e-04
-7.4910780e-03
-2.9202908e-03
-6.8117604e-03
-1.6388930e-02
-2.9020063e-02
-2.8716579e-02
-1.5490666e-02
-5.8630534e-03
-2.9002447e-03
-9.8778282e-03
-6.9824358e-03
6.4362500e-03
1.0816582e-02
7.1540337e-03
-3.6618151e-03
-7.4768142e-03
-4.8195826e-03
-6.6849602e-03
-1.3795021e-02
-3.1281019e-02
-4.0120881e-02
-3.4794483e-02
-2.8910238e-02
-2.7973172e-02
-3.7655630e-02
-3.7987204e-02
-2.5198872e-02
-1.4884041e-02
-1.0382272e-02
-1.5440144e-02
-9.7778840e-03
7.1857808e-03
1.5653000e-02
1.5464523e-02
6.7421234e-03
9.5220944e-03
2.4746311e-02
3.3514634e-02
3.5321337e-02
2.9150961e-02
3.1467809e-02
4.0658627e-02
4.0537638e-02
3.2902668e-02
1.6913001e-02
1.2381459e-02
1.9950904e-02
2.0079389e-02
1.2384800e-02
-3.4409783e-03
-7.9939424e-03
-1.1339010e-03
-1.5385848e-03
-9.1816534e-03
-2.4681219e-02
-2.9143273e-02
-2.0931098e-02
-1.6531509e-02
-1.7960727e-02
-2.7962522e-02
-2.6491146e-02
-1.2295522e-02
-4.0093691e-03
-3.2047156e-03
-1.1398889e-02
-8.3965031e-03
6.3619818e-03
1.3446142e-02
1.2631884e-02
3.4555249e-03
5.2087542e-03
1.8082089e-02
2.3203994e-02
2.0400344e-02
8.6926793e-03
7.7325431e-03
1.9762529e-02
2.6775049e-02
2.7445305e-02
2.0324721e-02
2.4474276e-02
4.0521658e-02
4.9246995e-02
4.9160124e-02
3.9050077e-02
3.7726248e-02
4.5678892e-02
4.5075476e-02
3.5547268e-02
1.6053459e-02
2.4056417e-03
1.6456373e-03
8.3613329e-03
1.4487109e-02
8.2756559e-03
8.5730131e-03
1.4895765e-02
7.7139959e-03
-1.3241146e-02
-4.8832068e-02
-8.0413499e-02
-9.1117979e-02
-8.3034204e-02
-7.3508998e-02
-8.0373468e-02
-8.5369429e-02
-7.5310882e-02
-5.4640455e-02
-3.7027831e-02
-3.7042538e-02
-3.7150345e-02
-2.8062156e-02
-1.5267375e-02
-7.4032250e-03
-1.5696527e-02
-2.4821660e-02
-2.2723211e-02
-8.6006346e-03
5.4464680e-03
3.9495540e-03
3.3708267e-03
1.3047470e-02
2.9883267e-02
4.6544643e-02
5.2295122e-02
5.9728049e-02
7.4128352e-02
9.2001851e-02
1.0764502e-01
1.1185548e-01
1.1479955e-01
1.2052021e-01
1.2899864e-01
1.3576666e-01
1.2923886e-01
1.1991532e-01
1.1572361e-01
1.1595209e-01
1.1039189e-01
8.5637846e-02
4.9518686e-02
7.0728997e-03
-3.5011066e-02
-7.0272320e-02
-1.0255524e-01
-1.2918576e-01
-1.4818779e-01
-1.5990220e-01
-1.6619717e-01
-1.7023876e-01
-1.7048191e-01
-1.6658495e-01
-1.5781596e-01
-1.4917794e-01
-1.4819567e-01
-1.4889558e-01
-1.4529456e-01
-1.3589389e-01
-1.2240618e-01
-1.0814711e-01
-8.8748120e-02
-6.0370152e-02
-2.1827327e-02
1.0273809e-02
1.8785635e-02
2.1861582e-02
3.5103532e-02
5.8297484e-02
7.8848431e-02
8.3365530e-02
8.0616007e-02
7.7265234e-02
7.9995148e-02
8.0455276e-02
6.3184462e-02
4.4071310e-02
3.7862477e-02
4.8586892e-02
6.0816987e-02
5.5280318e-02
3.8842095e-02
1.5834421e-02
-2.6865992e-03
-2.0388637e-02
-5.3472874e-02
-8.2978014e-02
-9.1178536e-02
-7.6971044e-02
-5.7579621e-02
-5.1756897e-02
-4.5164117e-02
-2.7186303e-02
3.7210838e-03
3.7065542e-02
5.7904409e-02
6.7660674e-02
6.6290153e-02
7.2433504e-02
8.6576112e-02
9.0082078e-02
8.4822301e-02
7.2135244e-02
7.0182730e-02
7.7325538e-02
7.3666955e-02
6.0417515e-02
3.8255223e-02
2.6079386e-02
2.3364761e-02
1.0023075e-02
-1.2566529e-02
-4.3202924e-02
-6.4142785e-02
-7.6554924e-02
-9.9843901e-02
-1.1802818e-01
-1.1532360e-01
-8.8147546e-02
-5.2114907e-02
-2.6503153e-02
-1.0836203e-02
-5.1453035e-03
9.2950607e-03
3.3018154e-02
4.7745910e-02
5.3018218e-02
4.7213992e-02
4.9452889e-02
6.1447029e-02
6.4779559e-02
5.8578552e-02
4.1212010e-02
3.1680782e-02
3.1730039e-02
2.3053741e-02
5.0825714e-03
-2.2764499e-02
-4.1223809e-02
-5.0560427e-02
-7.0406261e-02
-8.6284606e-02
-8.4525355e-02
-6.0569138e-02
-2.8120040e-02
-6.1336740e-03
5.8393403e-03
8.4064981e-03
2.1091578e-02
4.3641290e-02
5.6557367e-02
5.9221086e-02
5.0965996e-02
5.1667786e-02
6.1483203e-02
6.0917389e-02
4.9878501e-02
2.8173876e-02
1.6109415e-02
1.4886005e-02
5.0792268e-03
-1.3976902e-02
-4.2249263e-02
-6.0421269e-02
-6.9218182e-02
-8.8373305e-02
-1.0436302e-01
-1.0375830e-01
-8.0410660e-02
-4.7652052e-02
-2.5227470e-02
-1.3248513e-02
-1.1509716e-02
-7.5570815e-04
1.8923585e-02
2.8865391e-02
2.9783692e-02
2.2353590e-02
2.6342072e-02
4.1283907e-02
4.7627363e-02
4.4945891e-02
3.3077698e-02
3.2469792e-02
4.3291912e-02
4.5583415e-02
3.9671410e-02
2.5470586e-02
2.1506023e-02
2.8079212e-02
2.6804139e-02
1.8105547e-02
1.5149738e-03
-5.2894986e-03
1.1814304e-03
6.9983472e-03
9.8977176e-03
6.3089241e-03
1.3361399e-02
3.1214445e-02
4.2323429e-02
4.3882058e-02
3.2659964e-02
2.8115475e-02
3.2897825e-02
2.9640341e-02
1.5291845e-02
-1.3682469e-02
-3.8573459e-02
-4.9439208e-02
-5.4922070e-02
-6.4793106e-02
-8.9442437e-02
-1.0900367e-01
-1.1576496e-01
-1.2174773e-01
-1.1973255e-01
-1.0307946e-01
-6.7364154e-02
-2.4637792e-02
8.4595047e-03
2.9747086e-02
3.5663136e-02
4.3891999e-02
5.9595134e-02
7.0509226e-02
7.3024697e-02
6.2064391e-02
5.6118660e-02
5.9797061e-02
6.0347232e-02
5.3250129e-02
3.2458468e-02
1.7285813e-02
1.3055579e-02
6.0853374e-03
-8.7543598e-03
-3.7386657e-02
-6.0769028e-02
-7.4634858e-02
-9.3282720e-02
-1.0384756e-01
-9.4612360e-02
-6.3519414e-02
-2.5426901e-02
2.9657271e-03
2.1211816e-02
2.7647059e-02
4.0575139e-02
6.1202886e-02
7.1787241e-02
7.1568375e-02
6.0082174e-02
5.6416178e-02
6.1384181e-02
5.7139671e-02
4.1689239e-02
1.2982967e-02
-8.6025506e-03
-1.4615969e-02
-1.6695831e-02
-2.2411976e-02
-3.9708875e-02
-4.9468623e-02
-5.1437774e-02
-6.4771057e-02
-7.5641939e-02
-7.0282944e-02
-4.4320667e-02
-9.8093520e-03
1.7428093e-02
3.4672330e-02
3.8665096e-02
4.9465751e-02
7.1067176e-02
8.7571277e-02
9.4521662e-02
8.7635638e-02
8.6733624e-02
9.4768330e-02
9.4976248e-02
8.3949061e-02
5.8392055e-02
3.6914157e-02
2.4567944e-02
8.4064447e-03
-1.7040313e-02
-5.7892764e-02
-9.5921748e-02
-1.2160718e-01
-1.4306486e-01
-1.5980871e-01
-1.7204463e-01
-1.7081276e-01
-1.4966812e-01
-1.1124399e-01
-7.3958173e-02
-5.5818113e-02
-3.7544483e-02
-6.5247983e-03
3.3073307e-02
7.2418261e-02
1.0030652e-01
1.2857237e-01
1.5562935e-01
1.7358113e-01
1.8174537e-01
1.7337515e-01
1.6333100e-01
1.4895194e-01
1.1672668e-01
6.8941949e-02
3.8484017e-03
-5.9322696e-02
-1.0350466e-01
-1.3022743e-01
-1.3943883e-01
-1.3134744e-01
-1.0471239e-01
-6.9678404e-02
-3.7969534e-02
-1.8428689e-02
-1.9721970e-02
-2.4350198e-02
-1.7966616e-02
-2.4115643e-03
6.8900323e-03
-7.2901220e-03
-2.6690547e-02
-3.3855610e-02
-2.8325336e-02
-2.6884507e-02
-4.7811259e-02
-7.1960487e-02
-8.0519394e-02
-7.2924499e-02
-6.7392820e-02
-8.2572030e-02
-9.8434717e-02
-9.5994720e-02
-7.5658643e-02
-5.6050343e-02
-5.5771332e-02
-5.5621485e-02
-3.7510736e-02
-4.4562189e-04
3.8975347e-02
6.2536059e-02
7.5819780e-02
7.7250809e-02
7.5562390e-02
7.4704021e-02
6.3280765e-02
5.7524386e-02
6.1052299e-02
6.5066640e-02
6.5535436e-02
5.5436508e-02
5.2437686e-02
6.1459675e-02
7.2578172e-02
8.0301736e-02
7.7212279e-02
6.8970765e-02
5.5863060e-02
4.7308133e-02
4.3907366e-02
3.2031202e-02
2.2176013e-02
1.7487713e-02
1.8944958e-02
2.1823434e-02
1.3250139e-02
-3.0009615e-03
-2.4551810e-02
-3.6772934e-02
-4.1544151e-02
-5.6859296e-02
-7.3289849e-02
-8.3378592e-02
-8.0221055e-02
-7.3040049e-02
-7.9573748e-02
-9.1683514e-02
-1.0188773e-01
-9.7839812e-02
-8.6244443e-02
-8.6052229e-02
-8.6862533e-02
-8.1062672e-02
-6.1267529e-02
-2.2583311e-02
3.0221109e-02
8.5716977e-02
1.1817768e-01
1.3265430e-01
1.4270814e-01
1.4328305e-01
1.3605300e-01
1.2060706e-01
1.1398928e-01
1.1700244e-01
1.1147475e-01
9.8857338e-02
7.8771223e-02
6.6202556e-02
6.0750867e-02
4.4767912e-02
2.5128338e-02
5.2078629e-03
-6.4028768e-03
-1.3689019e-02
-3.3375039e-02
-6.2584196e-02
-9.8108045e-02
-1.2533996e-01
-1.3131852e-01
-1.1928654e-01
-1.0121646e-01
-8.7371683e-02
-6.5715891e-02
-4.2149951e-02
-3.4199841e-02
-3.7168624e-02
-4.6664863e-02
-4.9662632e-02
-4.4963813e-02
-4.4640298e-02
-4.0729141e-02
-2.4665235e-02
9.0291773e-03
4.8799999e-02
7.7759304e-02
9.3928815e-02
9.5851228e-02
1.0113982e-01
1.0816742e-01
9.7763803e-02
7.2472956e-02
3.4884896e-02
2.0125285e-03
-1.0211728e-02
-2.8872772e-03
1.5971657e-02
3.6583863e-02
6.5349637e-02
9.3685100e-02
1.0467347e-01
1.0017231e-01
8.1039264e-02
6.2043521e-02
4.1077285e-02
-3.8551760e-05
-4.9712042e-02
-9.7345976e-02
-1.3798300e-01
-1.7086120e-01
-2.0149143e-01
-2.2632448e-01
-2.4260239e-01
-2.4922563e-01
-2.4656492e-01
-2.3696718e-01
-2.1869063e-01
-1.8921960e-01
-1.4580110e-01
-9.7346746e-02
-5.3888210e-02
-1.4297193e-02
2.1371683e-02
6.4505320e-02
1.0963383e-01
1.4019040e-01
1.5959025e-01
1.6793366e-01
1.7831880e-01
1.9078350e-01
1.9083217e-01
1.7937925e-01
1.5566224e-01
1.3899886e-01
1.3094744e-01
1.1355185e-01
8.7685305e-02
5.3570679e-02
2.8654767e-02
1.1644547e-02
-1.6134377e-02
-5.3434346e-02
-9.9733025e-02
-1.3610239e-01
-1.4481382e-01
-1.2744635e-01
-1.0252618e-01
-8.8749272e-02
-6.6929002e-02
-3.4686136e-02
-8.9814649e-03
7.8458969e-03
1.3293220e-02
2.7190031e-02
5.0784106e-02
6.5590253e-02
7.0789104e-02
6.5352634e-02
6.8789503e-02
8.1274000e-02
8.3722761e-02
7.6206370e-02
5.7466340e-02
4.6723862e-02
4.5104775e-02
3.2803273e-02
8.8736594e-03
-2.6826846e-02
-5.4202562e-02
-6.1832078e-02
-5.8538504e-02
-5.6298224e-02
-6.6458176e-02
-6.8964412e-02
-5.4157061e-02
-3.1401992e-02
-1.0620564e-02
-3.2144230e-03
8.9236560e-03
2.7252605e-02
3.5265408e-02
3.2391417e-02
1.6902138e-02
8.2293174e-03
8.2748479e-03
-4.0159451e-04
-1.9808828e-02
-5.2106959e-02
-7.7458738e-02
-9.3979716e-02
-1.1917261e-01
-1.5412704e-01
-1.9987566e-01
-2.3624252e-01
-2.4351026e-01
-2.2096595e-01
-1.8712328e-01
-1.6122234e-01
-1.2876047e-01
-9.3299349e-02
-6.5852971e-02
-3.8961447e-02
-1.2459693e-02
2.4224175e-02
6.4325264e-02
9.9232839e-02
1.3793370e-01
1.7569872e-01
2.1263878e-01
2.4076793e-01
2.5930040e-01
2.8043203e-01
2.9470662e-01
2.9537441e-01
2.7922812e-01
2.4898840e-01
2.1360246e-01
1.6735657e-01
1.0648435e-01
4.6459508e-02
1.6393349e-02
1.1946742e-02
1.1637163e-02
1.9105396e-02
2.2204482e-02
1.7517412e-02
1.7915074e-02
2.1140039e-02
3.4304133e-02
4.6726838e-02
4.8966173e-02
4.9603217e-02
4.3485123e-02
3.6085391e-02
2.0840080e-02
-8.8803151e-03
-4.4359552e-02
-8.7697776e-02
-1.2370577e-01
-1.4755298e-01
-1.6896470e-01
-1.9366752e-01
-2.3000655e-01
-2.6123903e-01
-2.7145133e-01
-2.6027258e-01
-2.4188110e-01
-2.3196924e-01
-2.1449586e-01
-1.7686797e-01
-1.1962228e-01
-5.6633521e-02
-4.1893224e-03
4.7095422e-02
9.0751972e-02
1.2241881e-01
1.4937527e-01
1.6757979e-01
1.8506727e-01
1.9333692e-01
1.8856147e-01
1.8140438e-01
1.6955987e-01
1.6123967e-01
1.4784880e-01
1.2310018e-01
9.5064081e-02
6.0980860e-02
2.7627107e-02
1.2377129e-03
-6.5741742e-03
-3.1804965e-03
-8.5300243e-03
-8.8373420e-03
-1.1970774e-03
7.8001483e-03
1.3230158e-02
5.4565579e-03
-9.3158019e-03
-2.8398919e-02
-4.2367222e-02
-5.4706907e-02
-8.2170203e-02
-1.0873418e-01
-1.1927718e-01
-1.1222609e-01
-1.0327218e-01
-1.1068557e-01
-1.2164051e-01
-1.2388424e-01
-1.1103149e-01
-9.5161285e-02
-9.5223229e-02
-9.4193170e-02
-7.7473220e-02
-4.4933033e-02
-1.0569118e-02
9.2015287e-03
2.0139423e-02
2.5421521e-02
3.7025105e-02
5.2389356e-02
5.5152379e-02
5.5686883e-02
5.9351238e-02
7.2084475e-02
8.9820139e-02
9.8360336e-02
9.7556396e-02
8.4317130e-02
7.5235690e-02
7.1744318e-02
5.6302263e-02
4.3043988e-02
4.0978741e-02
5.1791953e-02
6.7464068e-02
7.3050056e-02
6.8104849e-02
5.0389983e-02
3.6328143e-02
2.6972304e-02
4.6471196e-03
-1.5224405e-02
-2.2864960e-02
-2.0531827e-02
-1.9325120e-02
-3.4070632e-02
-5.3809482e-02
-6.7281184e-02
-6.6335270e-02
-6.2618846e-02
-7.6168733e-02
-9.3405498e-02
-1.0133089e-01
-9.5311788e-02
-8.8140816e-02
-9.8035872e-02
-1.0902740e-01
-1.0624375e-01
-8.6826288e-02
-6.5540394e-02
-6.1083750e-02
-5.9556481e-02
-4.8857300e-02
-2.4367131e-02
3.3323592e-03
1.7378501e-02
2.1539961e-02
2.0488245e-02
3.1883067e-02
5.1876618e-02
6.0150917e-02
5.8002299e-02
4.6919043e-02
4.6387890e-02
5.6386021e-02
5.7678525e-02
5.0324418e-02
3.4226673e-02
2.8413959e-02
3.3937092e-02
3.3082685e-02
2.6555394e-02
1.4689024e-02
1.6243880e-02
3.0507263e-02
3.8206154e-02
3.9041797e-02
2.8780479e-02
2.3504948e-02
2.6909963e-02
2.2761505e-02
1.1482062e-02
-6.6036956e-03
-1.2512548e-02
-6.6503052e-03
-8.4175820e-03
-1.7035463e-02
-3.2334303e-02
-3.5527663e-02
-2.6389277e-02
-2.4152331e-02
-2.8735260e-02
-3.9302364e-02
-3.6062441e-02
-1.9872812e-02
-1.0981677e-02
-8.5016916e-03
-1.1092271e-02
1.7397383e-04
2.3921697e-02
4.0231282e-02
4.9341161e-02
4.5037021e-02
4.0946007e-02
4.3685086e-02
3.9716207e-02
2.8891231e-02
1.0929035e-02
5.1630615e-03
1.1549176e-02
1.0182563e-02
1.5407078e-03
-1.3781255e-02
-1.6860053e-02
-7.4511237e-03
-4.4958875e-03
-8.8630181e-03
-2.1052797e-02
-2.1154817e-02
-8.8950255e-03
-3.6481732e-03
-5.7748069e-03
-1.6342621e-02
-1.6741873e-02
-5.7791974e-03
-1.3860660e-03
-4.7406076e-03
-1.6844301e-02
-1.7386149e-02
-5.7197378e-03
-1.0665991e-03
-3.6801204e-03
-1.3966525e-02
-1.2412439e-02
1.3240299e-03
8.0546561e-03
6.4883957e-03
-5.0831774e-03
-6.3716551e-03
4.2833538e-03
7.8562832e-03
3.7411712e-03
-8.5413258e-03
-9.0455753e-03
2.7772581e-03
7.9139333e-03
5.8920504e-03
-4.1478093e-03
-2.6528987e-03
1.0396368e-02
1.5662828e-02
1.3282032e-02
2.4476878e-03
2.5986677e-03
1.4652938e-02
1.9142711e-02
1.5524454e-02
3.6381364e-03
3.1488702e-03
1.3943173e-02
1.6538069e-02
1.1511555e-02
-8.8942301e-04
-1.1662844e-03
1.0528158e-02
1.4408384e-02
1.0437237e-02
-1.6710852e-03
-2.6235626e-03
7.9049693e-03
1.0682526e-02
5.6655308e-03
-7.2714331e-03
-8.9463285e-03
-1.5771668e-04
-9.5958318e-04
-1.0223383e-02
-2.7044148e-02
-3.2676706e-02
-2.4164716e-02
-1.7711176e-02
-1.6491230e-02
-2.3718436e-02
-2.0625735e-02
-7.2334270e-03
-2.2429803e-03
-5.8067036e-03
-1.8457080e-02
-2.0460976e-02
-8.9951700e-03
-1.1019065e-03
8.2794721e-04
-5.4738377e-03
-6.3067728e-04
1.4579670e-02
2.0272303e-02
1.7474420e-02
6.8482824e-03
7.2016794e-03
1.8513288e-02
2.2110077e-02
1.7954599e-02
5.3494693e-03
3.2314315e-03
1.2398553e-02
1.4505277e-02
9.1677413e-03
-3.8299963e-03
-5.2078573e-03
5.2164626e-03
8.9391090e-03
5.0427250e-03
-7.7485605e-03
-9.5485446e-03
1.5692039e-03
7.5552069e-03
6.4634701e-03
-3.5218800e-03
-2.3710841e-03
1.0317783e-02
1.4847523e-02
1.0550179e-02
-3.0362108e-03
-6.2956428e-03
1.5282968e-03
1.8094857e-03
-6.5104160e-03
-2.4812844e-02
-3.3392729e-02
-2.7629641e-02
-2.2574133e-02
-2.2307308e-02
-3.1144701e-02
-2.9284984e-02
-1.5391553e-02
-8.2429380e-03
-8.7529972e-03
-1.7515853e-02
-1.5153475e-02
-1.1358076e-03
6.0358160e-03
5.4622042e-03
-3.9866794e-03
-2.3331680e-03
1.1239533e-02
1.7859603e-02
1.7869080e-02
1.1127902e-02
1.6629789e-02
3.4793001e-02
4.6589035e-02
5.0956366e-02
4.3281873e-02
3.9406916e-02
4.3255395e-02
3.9311639e-02
2.7179336e-02
6.2756800e-03
-3.6926577e-03
4.0597040e-04
2.1122962e-03
-1.4842489e-03
-1.3534798e-02
-1.4785348e-02
-4.4800609e-03
-1.7082548e-03
-7.6719666e-03
-2.2700562e-02
-2.7373040e-02
-2.0946947e-02
-2.1403294e-02
-3.0158863e-02
-4.9170173e-02
-5.8614469e-02
-5.0611156e-02
-3.7565319e-02
-2.7440953e-02
-2.7765530e-02
-1.8396666e-02
2.4035750e-03
1.6734624e-02
2.2969533e-02
1.9205836e-02
2.5593293e-02
4.2986644e-02
5.1954123e-02
5.1919199e-02
4.2755170e-02
4.2957833e-02
5.2201876e-02
5.3218749e-02
4.6119045e-02
2.9962720e-02
2.2605650e-02
2.6565124e-02
2.7999776e-02
2.3886023e-02
9.5688152e-03
2.9562096e-03
6.9679865e-03
6.7895092e-03
-1.6735435e-03
-2.3218330e-02
-3.9228100e-02
-3.8199109e-02
-2.6568350e-02
-1.6508304e-02
-2.1401405e-02
-2.1552704e-02
-1.3124405e-02
-1.2567692e-02
-2.3787653e-02
-5.0653934e-02
-7.5343674e-02
-8.1057134e-02
-6.7431948e-02
-5.1284817e-02
-5.0821309e-02
-4.6169492e-02
-3.2548831e-02
-2.4564941e-02
-2.6791095e-02
-4.3745579e-02
-5.6097277e-02
-4.7831651e-02
-2.0775498e-02
9.1906205e-03
2.4257098e-02
4.3049078e-02
6.7474176e-02
8.1118838e-02
8.4255749e-02
7.6014913e-02
7.4395551e-02
7.8901891e-02
7.2339057e-02
5.5355416e-02
2.6804458e-02
5.8332439e-03
5.5265931e-03
1.9093689e-02
3.3137683e-02
3.4696233e-02
4.3290515e-02
5.9810719e-02
6.5782984e-02
5.9057932e-02
3.7346500e-02
1.9801403e-02
1.4582405e-02
1.1089299e-02
8.0102582e-04
-2.5648808e-02
-5.1705186e-02
-6.4456317e-02
-6.5552435e-02
-6.8256046e-02
-8.8162590e-02
-1.0648951e-01
-1.0698251e-01
-9.1694420e-02
-7.7497454e-02
-8.1697892e-02
-8.5003650e-02
-7.3829509e-02
-5.3331670e-02
-3.6745929e-02
-3.7666196e-02
-3.7903298e-02
-1.8828960e-02
2.2168969e-02
6.7293679e-02
9.6666726e-02
1.1270178e-01
1.1065934e-01
1.0084141e-01
8.8353474e-02
6.0883950e-02
3.6147068e-02
2.4403240e-02
2.0514944e-02
1.3695407e-02
-9.2774803e-03
-2.9291396e-02
-3.0645950e-02
-1.6183664e-02
-1.0801165e-03
-1.4328173e-03
-6.0639414e-03
-1.0130628e-02
-1.1810128e-02
-1.6340963e-02
-3.7292082e-02
-5.8287681e-02
-6.6359517e-02
-6.1360053e-02
-5.5786324e-02
-6.5727049e-02
-7.8565156e-02
-8.3070186e-02
-7.3253018e-02
-5.9202857e-02
-5.8141392e-02
-5.9265715e-02
-5.3832960e-02
-3.4261506e-02
-8.6641635e-03
5.6504729e-03
1.8731735e-02
3.2771150e-02
5.0422055e-02
7.0401041e-02
8.1367689e-02
9.1915452e-02
1.0595454e-01
1.3055101e-01
1.6250560e-01
1.8734078e-01
2.0903271e-01
2.1332692e-01
1.9759120e-01
1.7531296e-01
1.4439606e-01
1.0824669e-01
6.9207839e-02
4.1095686e-02
1.9636323e-02
-1.5213194e-02
-4.7100912e-02
-6.0163221e-02
-5.3581775e-02
-4.4399309e-02
-5.2339912e-02
-6.0795818e-02
-5.2891514e-02
-2.7925702e-02
-4.3130013e-03
-2.0384556e-03
-2.9200853e-03
1.1060079e-02
3.8579367e-02
5.9463159e-02
5.3684914e-02
3.8521400e-02
3.1430478e-02
3.2344721e-02
2.6806159e-02
-2.2244637e-04
-3.4738134e-02
-6.3187776e-02
-8.6867409e-02
-1.0690646e-01
-1.2421628e-01
-1.3937419e-01
-1.5275802e-01
-1.6444757e-01
-1.7452200e-01
-1.8288989e-01
-1.8948389e-01
-1.9445045e-01
-1.9710535e-01
-1.9816725e-01
-1.9894780e-01
-1.9749538e-01
-1.9151059e-01
-1.7996669e-01
-1.6432017e-01
-1.4618561e-01
-1.2193641e-01
-8.7938983e-02
-4.2743730e-02
3.8537730e-03
4.1830607e-02
6.9918749e-02
8.6747648e-02
1.0851184e-01
1.3281911e-01
1.4215349e-01
1.4018133e-01
1.3062938e-01
1.3098457e-01
1.3922861e-01
1.3666584e-01
1.2380068e-01
1.0028880e-01
8.5956342e-02
8.2951018e-02
7.3193248e-02
5.7269429e-02
3.5817014e-02
2.8648845e-02
3.6117385e-02
3.9113228e-02
3.8352120e-02
3.3591557e-02
4.3571712e-02
6.9185657e-02
9.1391588e-02
1.0961764e-01
1.1554279e-01
1.2059322e-01
1.3272361e-01
1.3821445e-01
1.3427031e-01
1.1545146e-01
9.6547839e-02
8.3202778e-02
6.1118032e-02
3.0070244e-02
-1.0405937e-02
-4.2572231e-02
-6.6023728e-02
-9.8903476e-02
-1.2886703e-01
-1.4329672e-01
-1.3688129e-01
-1.2396986e-01
-1.2439297e-01
-1.2745696e-01
-1.2213765e-01
-1.0062076e-01
-7.5178406e-02
-6.5837995e-02
-6.4225685e-02
-6.2036514e-02
-4.7849778e-02
-2.8256557e-02
-2.1209848e-02
-2.3616082e-02
-3.2088561e-02
-3.0581452e-02
-1.9552992e-02
-1.5259127e-02
-1.6608860e-02
-2.1629304e-02
-1.4226010e-02
2.6250720e-03
1.0680887e-02
1.2017432e-02
8.9895416e-03
1.8792155e-02
3.8345655e-02
4.7675955e-02
4.7281806e-02
3.7669395e-02
3.8397506e-02
4.9634535e-02
5.2146776e-02
4.6492457e-02
3.2701583e-02
3.0427517e-02
4.0285394e-02
4.1478228e-02
3.2040816e-02
1.2849278e-02
5.8486850e-03
1.2041925e-02
1.1691090e-02
4.3299135e-03
-1.0827728e-02
-1.4151649e-02
-4.4654023e-03
-7.3823402e-04
-3.7309372e-03
-1.4900680e-02
-1.4566413e-02
-2.0197247e-03
2.4588985e-03
-1.5110436e-03
-1.3764503e-02
-1.4529501e-02
-3.0441092e-03
1.5962388e-03
-1.2053646e-03
-1.2442686e-02
-1.2882188e-02
-2.0251556e-03
1.4616254e-03
-1.5307514e-03
-1.1007753e-02
-8.1018333e-03
7.2625315e-03
1.6141694e-02
1.8552604e-02
1.2515615e-02
1.4985249e-02
2.6757726e-02
3.0862992e-02
2.8565136e-02
1.9744477e-02
2.2905109e-02
3.7296095e-02
4.3017973e-02
4.0597766e-02
3.0730086e-02
3.2170149e-02
4.3622745e-02
4.5059541e-02
3.7092119e-02
2.0154762e-02
1.3863472e-02
2.0579659e-02
1.9356953e-02
6.8622435e-03
-1.3728031e-02
-2.2768999e-02
-2.2045492e-02
-3.0051887e-02
-4.8160065e-02
-7.7989925e-02
-1.0037941e-01
-1.0623572e-01
-1.0593507e-01
-1.0729494e-01
-1.1818882e-01
-1.2078745e-01
-1.0365165e-01
-7.2647360e-02
-4.0710056e-02
-2.1619748e-02
4.6651388e-03
3.8298215e-02
5.9667246e-02
6.9620332e-02
6.8618143e-02
7.6966299e-02
9.5275165e-02
1.0383063e-01
1.0264544e-01
9.1831845e-02
9.0848151e-02
9.9265395e-02
9.7069620e-02
8.3926660e-02
5.9701371e-02
4.4360104e-02
4.3632317e-02
4.3267130e-02
3.6744784e-02
1.7367227e-02
4.8007806e-03
-8.4536895e-04
-1.9856093e-02
-4.9289661e-02
-8.5969434e-02
-1.1412527e-01
-1.2220809e-01
-1.1507949e-01
-1.0877546e-01
-1.1895231e-01
-1.2622908e-01
-1.1501993e-01
-8.9989580e-02
-6.7112264e-02
-6.0640264e-02
-5.0238365e-02
-2.9564851e-02
-1.1708127e-02
-1.5972536e-03
-3.8767896e-03
4.0359583e-04
1.6860498e-02
3.2797826e-02
4.2051496e-02
3.8333909e-02
4.2192200e-02
5.4325294e-02
5.5106985e-02
4.4784895e-02
2.3791478e-02
1.1725889e-02
1.3286246e-02
1.4300797e-02
1.0607714e-02
-2.6402453e-03
-6.5063889e-03
4.2721544e-03
1.5341910e-02
2.0151603e-02
1.3939658e-02
1.7818623e-02
3.2165212e-02
3.7813341e-02
3.5467315e-02
2.5073785e-02
2.5309354e-02
3.5743769e-02
3.6533175e-02
2.6892006e-02
6.3202937e-03
-5.1689537e-03
-4.5737266e-03
-8.7517420e-03
-1.9822915e-02
-4.0287560e-02
-5.1217684e-02
-4.5810890e-02
-3.6048038e-02
-2.8853773e-02
-3.1416798e-02
-2.3779208e-02
-4.1635062e-03
9.4347099e-03
1.5370464e-02
1.1613170e-02
1.7669178e-02
3.4160569e-02
4.1807743e-02
4.0218680e-02
2.9010272e-02
2.8073815e-02
3.7985443e-02
3.8674796e-02
2.9368063e-02
1.0166107e-02
5.7072159e-04
7.5041779e-03
1.8398447e-02
2.5480928e-02
2.0850170e-02
2.3747808e-02
3.4313288e-02
3.2759412e-02
1.9059688e-02
-6.2684016e-03
-2.3700849e-02
-2.3305291e-02
-1.7186805e-02
-1.8264539e-02
-3.4316406e-02
-4.3704062e-02
-4.0447219e-02
-3.7748575e-02
-4.2542174e-02
-6.1762914e-02
-7.5232778e-02
-7.3139444e-02
-6.5750373e-02
-6.2394841e-02
-7.2439182e-02
-7.6040216e-02
-6.3788306e-02
-4.5827712e-02
-3.0813327e-02
-2.7467257e-02
-1.6293714e-02
6.5189125e-03
2.6044440e-02
3.8861694e-02
4.0704986e-02
5.0627665e-02
6.9376364e-02
7.9022613e-02
7.9179140e-02
6.9192255e-02
6.9339900e-02
8.0597183e-02
8.4231039e-02
7.9307118e-02
6.4391697e-02
5.8378166e-02
6.3089255e-02
6.1598945e-02
5.1903210e-02
3.1175433e-02
1.8938995e-02
1.6989132e-02
6.9155814e-03
-1.3107449e-02
-4.4614339e-02
-6.8525191e-02
-7.5350892e-02
-7.4592386e-02
-7.6308868e-02
-9.1444393e-02
-1.0165695e-01
-9.4154164e-02
-7.4894023e-02
-5.5842788e-02
-4.9564158e-02
-3.7004113e-02
-1.6194442e-02
-4.5133633e-03
-3.8292049e-03
-1.5706556e-02
-2.0653237e-02
-1.2548864e-02
-4.2141880e-03
-1.2121341e-03
-9.2556690e-03
-8.9091656e-03
2.8008419e-03
1.0104212e-02
1.0507327e-02
8.7488662e-04
6.2832524e-04
1.3568834e-02
2.4162252e-02
2.8265934e-02
2.1927007e-02
2.5830225e-02
4.0912628e-02
4.6489427e-02
4.0430130e-02
2.3086161e-02
1.5896436e-02
2.0911553e-02
1.9978816e-02
1.2393916e-02
-2.7675585e-03
-6.2800627e-03
2.8618139e-03
6.4689326e-03
3.5834747e-03
-6.8613555e-03
-5.3938464e-03
8.5933135e-03
1.6064624e-02
1.6241188e-02
8.9329890e-03
1.3368179e-02
2.9656173e-02
3.9259332e-02
4.1701594e-02
3.5839436e-02
4.0489882e-02
5.5358156e-02
5.8702057e-02
4.8874938e-02
2.7962034e-02
1.6451502e-02
1.8938868e-02
2.0948689e-02
1.7459569e-02
3.5233144e-03
-1.9599876e-03
2.3447545e-04
-9.2668216e-03
-3.0625000e-02
-6.4532809e-02
-9.1688200e-02
-9.8097810e-02
-8.8969299e-02
-7.9155055e-02
-8.3873528e-02
-8.2809906e-02
-6.4905656e-02
-3.9780170e-02
-1.8550740e-02
-1.2062897e-02
-5.1078792e-04
1.6936430e-02
2.1636371e-02
1.3853812e-02
-6.0847202e-03
-1.7951244e-02
-1.2511008e-02
-3.7833068e-04
9.0058309e-03
6.1538729e-03
1.0784122e-02
2.3242435e-02
2.4089482e-02
1.3254274e-02
-8.9352289e-03
-2.2389292e-02
-1.9500549e-02
-1.2151399e-02
-7.6669686e-03
-1.3246740e-02
-8.3330008e-03
8.5256070e-03
1.8427551e-02
2.0300209e-02
1.3035415e-02
1.6164847e-02
3.0082336e-02
3.4193331e-02
2.7686340e-02
1.2706065e-02
9.9961869e-03
1.9174118e-02
2.0796723e-02
1.4647189e-02
1.1020039e-03
8.8387227e-04
1.3464125e-02
1.7554680e-02
1.3476669e-02
2.6138129e-03
3.9000543e-03
1.6105450e-02
1.9937970e-02
1.5992559e-02
4.1102951e-03
3.2899265e-03
1.3727540e-02
1.6440098e-02
1.0505744e-02
-4.8501453e-03
-9.1668842e-03
-4.5016130e-04
3.4133042e-03
1.7177406e-03
-6.8075811e-03
-3.7953050e-03
9.8909707e-03
1.5081780e-02
1.1534947e-02
-1.5066056e-03
-4.8520453e-03
2.2375069e-03
1.3290019e-03
-8.4691510e-03
-2.8281325e-02
-3.8293340e-02
-3.5437703e-02
-3.6247520e-02
-4.2697878e-02
-5.7208487e-02
-6.1358685e-02
-4.9329653e-02
-3.3603616e-02
-2.1170324e-02
-1.9602383e-02
-9.0585182e-03
1.1946486e-02
2.4158314e-02
2.5697880e-02
1.6428464e-02
1.7543105e-02
2.9174907e-02
3.1903168e-02
2.6739562e-02
1.3386473e-02
1.1450035e-02
2.1622847e-02
2.3691030e-02
1.7451991e-02
2.0416434e-03
-4.2614621e-03
-2.9193005e-04
-4.0734180e-03
-1.5588019e-02
-3.4676230e-02
-4.0702715e-02
-3.3058980e-02
-3.1344244e-02
-3.5828084e-02
-4.6513711e-02
-4.3330001e-02
-2.6520895e-02
-1.6119104e-02
-1.1507764e-02
-1.2860751e-02
-2.3709926e-03
1.9898271e-02
3.6345999e-02
4.8411976e-02
4.8891397e-02
4.9442676e-02
5.7553456e-02
6.1809243e-02
6.2368171e-02
5.1372020e-02
4.1149980e-02
3.9467692e-02
3.3986532e-02
2.4588879e-02
9.7688474e-03
7.7278907e-03
2.0176988e-02
2.8534893e-02
3.2109729e-02
3.0803312e-02
4.3925503e-02
7.1062299e-02
8.9942325e-02
9.7411258e-02
9.5093341e-02
1.0431104e-01
1.2412411e-01
1.3444644e-01
1.3567238e-01
1.2770910e-01
1.2801681e-01
1.3465479e-01
1.2715784e-01
1.0891719e-01
8.3252189e-02
6.3587929e-02
4.4539888e-02
5.7960300e-03
-4.1809943e-02
-8.7211629e-02
-1.2561062e-01
-1.5556957e-01
-1.8159054e-01
-2.0363575e-01
-2.2166915e-01
-2.3429373e-01
-2.4230173e-01
-2.4993720e-01
-2.5816860e-01
-2.6531058e-01
-2.6861791e-01
-2.6783058e-01
-2.6420137e-01
-2.5560332e-01
-2.4005886e-01
-2.1709757e-01
-1.8917661e-01
-1.5857471e-01
-1.2057228e-01
-6.9973005e-02
-4.3481944e-03
5.9555829e-02
1.0459043e-01
1.3204210e-01
1.4266845e-01
1.5619052e-01
1.7477611e-01
1.8197178e-01
1.7761836e-01
1.6101615e-01
1.5263677e-01
1.5361514e-01
1.4511913e-01
1.2793809e-01
1.0231116e-01
8.8127597e-02
8.6655383e-02
7.9190172e-02
6.5675194e-02
4.5242885e-02
3.7201929e-02
4.2538358e-02
4.2085310e-02
3.5255262e-02
1.9220910e-02
1.1184095e-02
1.3517764e-02
9.0217597e-03
-1.2759087e-03
-1.6535153e-02
-1.8358581e-02
-7.7995929e-03
-4.5000531e-03
-8.7873212e-03
-2.0871696e-02
-2.0991340e-02
-9.1582585e-03
-7.2668919e-03
-1.3774515e-02
-2.3074363e-02
-1.7602005e-02
-1.1867127e-03
6.8867018e-03
8.8660702e-03
5.2735541e-03
1.2031396e-02
2.7462356e-02
3.2148779e-02
2.7626622e-02
1.4710692e-02
1.0809962e-02
1.5120572e-02
8.0275777e-03
-1.5358823e-03
-5.0617659e-03
7.0976767e-03
2.5928441e-02
3.2119604e-02
2.5976909e-02
7.2316407e-03
-4.7411701e-03
-1.0263851e-02
-2.9865825e-02
-5.0763058e-02
-6.0495572e-02
-5.2906667e-02
-4.0224972e-02
-4.1645448e-02
-4.7581611e-02
-4.9354716e-02
-3.8241360e-02
-2.3141884e-02
-2.2138024e-02
-2.3204011e-02
-1.5388423e-02
8.8221286e-03
3.7938286e-02
5.2215454e-02
5.2826337e-02
4.1033133e-02
3.4836740e-02
3.2531008e-02
1.4877795e-02
-4.9611339e-04
2.8398901e-03
2.6851116e-02
5.4708663e-02
6.6912501e-02
6.9219963e-02
6.4141051e-02
6.2020906e-02
6.0771947e-02
4.4449606e-02
2.2543775e-02
4.7833999e-03
5.2201265e-04
-9.0542133e-04
-1.9737697e-02
-3.9052108e-02
-4.2456969e-02
-2.9194394e-02
-1.7302896e-02
-2.6379566e-02
-4.1398973e-02
-4.8474021e-02
-4.4386297e-02
-3.8455012e-02
-4.4325781e-02
-5.0761794e-02
-4.7128160e-02
-3.1027741e-02
-1.9151487e-02
-3.1203323e-02
-4.7563069e-02
-4.9709596e-02
-3.8425167e-02
-3.1380964e-02
-4.6306528e-02
-6.4036045e-02
-6.6156623e-02
-5.2312277e-02
-4.0102256e-02
-4.7995110e-02
-5.7134259e-02
-4.9139818e-02
-2.4506551e-02
-1.8186441e-03
7.9735743e-04
3.5145233e-03
1.9827045e-02
4.3879849e-02
6.3146830e-02
6.5002188e-02
6.8397713e-02
8.1888194e-02
9.6203599e-02
1.0291553e-01
9.0198105e-02
7.2582400e-02
6.3099124e-02
5.9879249e-02
5.3164319e-02
3.1039882e-02
8.8315607e-03
4.0674862e-04
7.1258781e-03
1.3522386e-02
1.2869686e-03
-1.5546007e-02
-2.3381007e-02
-1.7151202e-02
-1.1363622e-02
-2.6155441e-02
-4.2215583e-02
-4.4334739e-02
-3.6314757e-02
-3.3143603e-02
-5.0409840e-02
-6.9976243e-02
-7.5340927e-02
-6.7074178e-02
-6.0551935e-02
-7.2271186e-02
-8.3426410e-02
-7.8045791e-02
-5.8344153e-02
-4.1015598e-02
-4.3753300e-02
-4.6544108e-02
-2.8814134e-02
9.8351827e-03
5.0432209e-02
7.3139503e-02
9.5143036e-02
1.1692665e-01
1.2382076e-01
1.1674635e-01
9.3776602e-02
7.0460939e-02
5.7257662e-02
5.2488824e-02
4.5713816e-02
2.2747250e-02
3.1360740e-03
-2.8317159e-03
-3.9644742e-03
-9.9210944e-03
-3.4441127e-02
-6.2497283e-02
-7.3421623e-02
-6.4523894e-02
-5.3688338e-02
-5.9460686e-02
-6.2601463e-02
-5.1327006e-02
-3.2537891e-02
-1.7304794e-02
-1.7583406e-02
-1.7320352e-02
-7.9883967e-03
5.3001928e-03
1.3479083e-02
4.8136657e-03
-1.6342084e-03
3.6488624e-03
1.2583047e-02
1.6807128e-02
6.7853968e-03
2.5027216e-03
1.6391098e-02
4.1516878e-02
6.5093155e-02
7.1389714e-02
7.7663042e-02
8.6167273e-02
8.0154124e-02
6.1311346e-02
2.9806927e-02
3.3285398e-03
-6.5529622e-03
-6.3075932e-03
-8.1740722e-03
-2.4651575e-02
-3.5887334e-02
-3.4369867e-02
-3.2389236e-02
-3.7531834e-02
-5.7796626e-02
-7.3475670e-02
-6.8353412e-02
-4.6680252e-02
-2.4570814e-02
-1.7625855e-02
-7.1045330e-03
1.4288473e-02
3.6432503e-02
5.1539741e-02
4.4062457e-02
2.7064119e-02
1.6983117e-02
1.0905391e-02
6.2124343e-04
-2.2123377e-02
-3.7816457e-02
-3.9356256e-02
-3.8885207e-02
-4.4690560e-02
-6.4987240e-02
-7.9445925e-02
-7.4467136e-02
-5.6577346e-02
-3.8295130e-02
-3.2028823e-02
-1.8815063e-02
3.9029756e-03
2.1295831e-02
3.1351850e-02
3.0814074e-02
3.9114401e-02
5.8425037e-02
7.2320628e-02
7.9123044e-02
7.2202258e-02
6.6850739e-02
6.8019445e-02
6.1281567e-02
4.5613492e-02
2.0232011e-02
4.8852835e-03
2.9504999e-03
-1.3024233e-03
-1.0937824e-02
-2.9274312e-02
-3.7165527e-02
-2.9980344e-02
-2.1837973e-02
-1.8168594e-02
-2.4942521e-02
-2.2477180e-02
-8.8858093e-03
-1.8087560e-03
-1.8499148e-03
-1.0311425e-02
-8.2042674e-03
5.7645140e-03
1.3460777e-02
1.3189631e-02
3.1204199e-03
2.9933605e-03
1.4502418e-02
1.9403669e-02
1.6208518e-02
3.0217742e-03
-4.2981673e-04
8.3481802e-03
1.1752414e-02
8.2475022e-03
-3.5832722e-03
-4.5742148e-03
6.0934148e-03
1.0474239e-02
7.7114997e-03
-3.0127852e-03
-2.3254972e-03
9.8900106e-03
1.4945482e-02
1.1453049e-02
-2.5598717e-03
-7.4650679e-03
2.0597310e-04
4.2089991e-03
2.0584145e-03
-1.2042471e-02
-2.2142223e-02
-1.9242781e-02
-1.3230489e-02
-1.0041338e-02
-1.5619904e-02
-1.0819685e-02
4.2253032e-03
1.0103786e-02
7.4433824e-03
-2.9509532e-03
-2.5744473e-03
8.9236234e-03
1.3029659e-02
7.8132939e-03
-8.3585834e-03
-1.5681515e-02
-9.5681816e-03
-4.9636900e-03
-4.8756386e-03
-1.4049478e-02
-1.6241227e-02
-3.4821522e-03
1.5311331e-02
3.5079496e-02
4.1639709e-02
4.3557636e-02
4.5729522e-02
3.6412585e-02
1.5973889e-02
-1.5393421e-02
-3.7796541e-02
-4.0707163e-02
-3.3313040e-02
-2.5343174e-02
-2.6752051e-02
-1.8512063e-02
-1.2034660e-03
5.2425507e-03
6.9929182e-04
-1.4649482e-02
-2.1490353e-02
-1.8041053e-02
-2.1485221e-02
-2.8817379e-02
-3.7248551e-02
-3.2332867e-02
-1.6369260e-02
-5.4437435e-03
-1.3900356e-03
-6.8510532e-03
-2.7120379e-03
1.1728549e-02
1.8101794e-02
1.5802153e-02
4.0360105e-03
2.4946689e-03
1.1573325e-02
1.2324026e-02
6.6788235e-03
-4.0644925e-03
-2.3749726e-03
1.0304577e-02
1.4672700e-02
1.1082488e-02
-2.2960890e-04
3.8705833e-04
1.3629700e-02
2.0424374e-02
2.0321917e-02
1.2827762e-02
1.7573367e-02
3.4149150e-02
4.2595292e-02
4.4358938e-02
3.7656520e-02
3.8198037e-02
4.7089121e-02
4.6405801e-02
3.6412708e-02
1.7601819e-02
9.7246605e-03
1.2275179e-02
4.7061040e-03
-1.0916445e-02
-3.2621803e-02
-4.3195853e-02
-4.4750737e-02
-5.7139794e-02
-7.1424131e-02
-7.8198002e-02
-6.6197301e-02
-4.4530210e-02
-3.3257265e-02
-3.1474926e-02
-3.8415919e-02
-3.5210406e-02
-2.1876574e-02
-1.7594474e-02
-2.2045137e-02
-3.4637984e-02
-3.6374261e-02
-2.7333569e-02
-2.6054018e-02
-3.2372824e-02
-4.6241115e-02
-4.7165921e-02
-3.4875841e-02
-2.9105581e-02
-2.8671510e-02
-3.2884271e-02
-2.2693997e-02
1.5386267e-03
2.0464615e-02
3.5201957e-02
4.2069362e-02
5.6361035e-02
8.2624613e-02
1.0558248e-01
1.2538281e-01
1.2960265e-01
1.2527748e-01
1.2510306e-01
1.2221466e-01
1.1890230e-01
1.0534679e-01
8.7424876e-02
7.4387798e-02
5.7232776e-02
3.6881209e-02
1.1887326e-02
-2.4331875e-03
-4.6515817e-03
-1.1368097e-02
-2.0419054e-02
-3.1881588e-02
-3.1403718e-02
-2.0336477e-02
-1.6923677e-02
-2.0686809e-02
-3.3366702e-02
-3.9489566e-02
-3.8926181e-02
-4.9860071e-02
-6.0465303e-02
-5.9267538e-02
-3.8917933e-02
-1.0638524e-02
5.8222261e-03
1.3413753e-02
1.1711123e-02
1.2511047e-02
1.5713035e-02
5.2571518e-03
-6.4711054e-03
-7.1690118e-03
9.1804978e-03
2.8709370e-02
3.1050622e-02
2.2242795e-02
6.1151127e-03
-6.0885251e-03
-1.7734889e-02
-4.6140926e-02
-7.6293266e-02
-9.3658278e-02
-9.4943777e-02
-9.5232670e-02
-1.1349445e-01
-1.3056709e-01
-1.2833696e-01
-1.0649409e-01
-8.3098903e-02
-7.7654974e-02
-7.5374254e-02
-6.7170338e-02
-5.3413612e-02
-4.0109409e-02
-3.8781786e-02
-3.6777607e-02
-2.4009402e-02
3.9120924e-03
3.7967983e-02
6.2178141e-02
8.0078486e-02
8.9328883e-02
1.0004750e-01
1.1521809e-01
1.2209138e-01
1.3356158e-01
1.4300743e-01
1.3886139e-01
1.2813252e-01
1.1006515e-01
9.3615550e-02
7.7563448e-02
6.2000709e-02
4.8046612e-02
2.6402145e-02
7.2582941e-03
-1.1625855e-03
7.9160490e-03
2.4545697e-02
2.9735197e-02
3.9109495e-02
5.0979699e-02
5.0840867e-02
3.9345263e-02
1.3943053e-02
-7.3162266e-03
-1.5271641e-02
-1.8401479e-02
-2.8106391e-02
-5.6319205e-02
-8.5205293e-02
-1.0071434e-01
-1.0461484e-01
-1.1073449e-01
-1.3516936e-01
-1.5893882e-01
-1.6504709e-01
-1.5509085e-01
-1.4587440e-01
-1.5457886e-01
-1.6193526e-01
-1.4956275e-01
-1.1698295e-01
-8.1641809e-02
-6.1473771e-02
-3.6644918e-02
9.6447414e-03
7.6166280e-02
1.4682510e-01
2.0359708e-01
2.5035831e-01
2.7323067e-01
2.6894582e-01
2.5250603e-01
2.2354037e-01
1.9726773e-01
1.6934055e-01
1.2430656e-01
6.6405091e-02
-4.4019726e-03
-6.8372947e-02
-1.0641706e-01
-1.2014557e-01
-1.2455656e-01
-1.3380286e-01
-1.3360700e-01
-1.1609430e-01
-8.8158527e-02
-6.4198359e-02
-5.8530448e-02
-5.1645785e-02
-3.3981847e-02
-1.5979194e-02
-6.8180340e-03
-1.5555034e-02
-2.2954078e-02
-1.4271234e-02
6.2224472e-03
2.3845067e-02
2.3547515e-02
2.4496980e-02
3.2135876e-02
3.2802353e-02
2.0405906e-02
-1.1657418e-02
-4.3730625e-02
-5.9206897e-02
-6.1103068e-02
-6.4920560e-02
-8.6575056e-02
-1.0583044e-01
-1.0527191e-01
-8.7936155e-02
-6.9430425e-02
-6.5174396e-02
-5.5916376e-02
-3.1410176e-02
-1.8233638e-04
2.7567284e-02
4.1283919e-02
6.1060029e-02
8.7420713e-02
1.0094817e-01
1.0207541e-01
9.1546445e-02
8.9074180e-02
9.5328149e-02
9.1904502e-02
7.8521872e-02
5.4646913e-02
4.0288330e-02
3.5483787e-02
2.0227446e-02
-5.0083285e-03
-4.0150397e-02
-6.6277136e-02
-7.0706455e-02
-5.9758032e-02
-4.6069289e-02
-4.2305218e-02
-2.8015207e-02
-2.9094151e-03
1.3128895e-02
1.9714423e-02
1.6779669e-02
2.4222085e-02
4.1422541e-02
4.8263611e-02
4.5259418e-02
3.2675816e-02
2.9678967e-02
3.6475251e-02
3.4404199e-02
2.3300004e-02
2.0230692e-03
-1.0298914e-02
-8.5880980e-03
-7.9378215e-03
-1.3321004e-02
-2.8636698e-02
-3.4156796e-02
-2.7827061e-02
-2.6450397e-02
-3.3359413e-02
-5.1953435e-02
-6.1884822e-02
-5.2630604e-02
-3.3762932e-02
-1.5517230e-02
-8.2745456e-03
7.0324128e-03
3.0515516e-02
4.3609428e-02
4.6315780e-02
3.8135613e-02
3.8978352e-02
4.8882512e-02
4.7745414e-02
3.5685433e-02
1.2956858e-02
-1.2961634e-03
-6.2084651e-03
-1.9773281e-02
-4.1667921e-02
-7.2125747e-02
-9.2605799e-02
-9.0224709e-02
-7.1079785e-02
-4.9189214e-02
-3.8234398e-02
-1.8112028e-02
1.1179688e-02
2.9687211e-02
3.7824198e-02
3.5617176e-02
4.2804164e-02
6.0331841e-02
6.8775760e-02
6.7971512e-02
5.8248015e-02
5.8886688e-02
6.9265537e-02
6.9704300e-02
6.0480677e-02
4.0719131e-02
2.8271283e-02
2.3541652e-02
8.0447802e-03
-1.9001194e-02
-5.8002968e-02
-8.8794748e-02
-9.5223678e-02
-8.0193239e-02
-5.8979165e-02
-4.8177785e-02
-2.9654490e-02
-4.1243995e-03
8.8967332e-03
1.0162711e-02
2.8006035e-05
-2.6768924e-03
1.9729013e-03
-5.4681244e-03
-1.9365570e-02
-3.3793474e-02
-3.4537452e-02
-2.7310702e-02
-3.1849954e-02
-4.1714808e-02
-4.9877117e-02
-4.2049203e-02
-2.5216828e-02
-2.0108080e-02
-2.0762330e-02
-2.1928256e-02
-1.0124594e-02
1.1261304e-02
2.4956194e-02
3.3056130e-02
3.4822666e-02
4.5186843e-02
6.4622206e-02
7.6273148e-02
7.9876635e-02
7.3588565e-02
7.5384244e-02
8.6746350e-02
8.9779377e-02
8.4455061e-02
7.0160924e-02
6.5950547e-02
7.2250564e-02
6.9728968e-02
5.8457423e-02
3.7163899e-02
2.2879999e-02
1.5491077e-02
-4.0105667e-03
-3.5058081e-02
-7.7546391e-02
-1.1367576e-01
-1.3384463e-01
-1.4719876e-01
-1.5208642e-01
-1.4663944e-01
-1.2356894e-01
-9.5229508e-02
-8.1333770e-02
-7.3208546e-02
-6.3907028e-02
-4.4144076e-02
-2.0571605e-02
-1.0765165e-02
2.0458705e-03
3.0407293e-02
7.3699563e-02
1.2009939e-01
1.5389401e-01
1.7643709e-01
1.7567514e-01
1.5535478e-01
1.2757592e-01
8.6851873e-02
4.8225044e-02
2.4939207e-02
1.9627189e-02
2.5084663e-02
2.9242247e-02
2.9253039e-02
1.8321661e-02
6.8141354e-03
-6.0610031e-03
-3.5953305e-02
-6.6196928e-02
-8.1158636e-02
-7.9788393e-02
-7.9043054e-02
-9.8058313e-02
-1.1805885e-01
-1.2177075e-01
-1.0988810e-01
-9.9474327e-02
-1.0856106e-01
-1.1986142e-01
-1.1743382e-01
-1.0065170e-01
-8.5106786e-02
-8.8408213e-02
-9.1872846e-02
-7.7058248e-02
-4.2308761e-02
-5.1154712e-03
1.5558243e-02
3.8593619e-02
7.0534225e-02
1.0141109e-01
1.2548360e-01
1.3507016e-01
1.5036327e-01
1.7412035e-01
1.8934872e-01
1.9420637e-01
1.8645963e-01
1.8065349e-01
1.7574897e-01
1.6073051e-01
1.3646137e-01
9.8541716e-02
6.4554750e-02
4.0804785e-02
1.5597055e-02
-1.9061811e-02
-7.2251925e-02
-1.2744304e-01
-1.6875925e-01
-1.9616079e-01
-2.0726463e-01
-2.0150609e-01
-1.7978416e-01
-1.4874579e-01
-1.1356491e-01
-8.4756497e-02
-7.3671113e-02
-6.4183459e-02
-4.4261307e-02
-1.6931459e-02
3.2389521e-03
7.5201217e-04
-4.7590824e-03
1.5031994e-03
1.5875282e-02
2.4879706e-02
1.3980281e-02
2.5975758e-03
3.8264781e-03
1.1671444e-02
1.3501551e-02
-3.4282614e-03
-1.9200826e-02
-3.3887105e-02
-6.6483456e-02
-9.7417837e-02
-1.0753225e-01
-9.5164591e-02
-6.7876917e-02
-3.3937385e-02
-2.9158306e-03
1.4906589e-02
3.7837990e-02
6.5347666e-02
8.0211923e-02
8.4066159e-02
7.7255330e-02
7.9669224e-02
9.1515167e-02
9.3853979e-02
8.6510676e-02
6.8949641e-02
6.0656817e-02
6.2247144e-02
5.5543281e-02
4.0558084e-02
1.6433739e-02
3.2264145e-03
5.1200163e-03
6.0933757e-03
2.6232103e-03
-9.1965748e-03
-1.0746869e-02
1.1282660e-04
6.6604299e-03
6.0379813e-03
-4.5917449e-03
-5.1992201e-03
7.4278693e-03
1.6536722e-02
1.8304779e-02
9.0185244e-03
8.6798983e-03
1.9971051e-02
2.5853280e-02
2.3337788e-02
9.1127804e-03
3.2184024e-03
8.0668175e-03
5.7877024e-03
-6.3348209e-03
-3.0674512e-02
-4.7300660e-02
-5.5623635e-02
-7.4738421e-02
-9.1719610e-02
-9.3917905e-02
-7.5615689e-02
-4.8473499e-02
-2.9631101e-02
-2.0735895e-02
-2.4299529e-02
-2.0721358e-02
-5.2270033e-03
7.1003414e-03
1.2802906e-02
7.8572601e-03
1.1463942e-02
2.5290305e-02
3.1644863e-02
2.9916007e-02
1.9526770e-02
1.9988495e-02
3.0414768e-02
3.0908208e-02
2.1986312e-02
4.0573638e-03
-3.1162001e-03
1.9238820e-03
1.2846209e-03
-2.6710847e-03
-8.0839145e-03
8.8308121e-04
2.0114396e-02
2.9520197e-02
2.9507707e-02
2.0354645e-02
2.1862676e-02
3.5684251e-02
4.3795360e-02
4.4863672e-02
3.6975043e-02
3.9447251e-02
5.1829232e-02
5.3869195e-02
4.5545242e-02
2.6555605e-02
1.6544496e-02
1.5903856e-02
4.9859081e-03
-1.6383518e-02
-4.8644050e-02
-7.2424525e-02
-8.7642228e-02
-1.1418049e-01
-1.3301766e-01
-1.2522285e-01
-9.1066303e-02
-4.9956002e-02
-2.1270103e-02
-3.9702333e-03
2.1065707e-03
1.5289406e-02
3.5821661e-02
4.5091978e-02
4.4250590e-02
3.3857248e-02
3.2473693e-02
3.9238541e-02
3.4429948e-02
2.2332485e-02
6.6918725e-03
3.3881193e-03
1.0059914e-02
7.9874722e-03
-3.3505346e-03
-2.4609441e-02
-3.6034424e-02
-3.7388746e-02
-4.8412127e-02
-5.9625976e-02
-6.2034674e-02
-4.5623557e-02
-1.8682127e-02
-2.3759906e-05
1.1324115e-02
1.6306539e-02
3.4002686e-02
6.3369937e-02
8.4184706e-02
9.7394487e-02
1.0278057e-01
1.1803169e-01
1.4417613e-01
1.6305044e-01
1.7285605e-01
1.7139436e-01
1.7786398e-01
1.9184854e-01
1.9222310e-01
1.7743240e-01
1.4597682e-01
1.1669095e-01
8.8828700e-02
4.1248694e-02
-7.8313733e-03
-4.0928500e-02
-5.9828506e-02
-7.4942369e-02
-9.7064380e-02
-1.2088207e-01
-1.4127730e-01
-1.5694406e-01
-1.6854495e-01
-1.7896100e-01
-1.8656004e-01
-1.9188816e-01
-1.9684511e-01
-2.0241642e-01
-2.0976127e-01
-2.1663309e-01
-2.2124254e-01
-2.2295610e-01
-2.2326647e-01
-2.2410925e-01
-2.2233641e-01
-2.1523772e-01
-2.0106798e-01
-1.7846847e-01
-1.4729255e-01
-1.0518499e-01
-4.9849004e-02
1.9839475e-02
8.5985202e-02
1.3068388e-01
1.5915287e-01
1.7180744e-01
1.8155256e-01
1.9138085e-01
1.8740895e-01
1.8129732e-01
1.7893020e-01
1.8356715e-01
1.9297011e-01
1.9601801e-01
1.9610195e-01
1.8728927e-01
1.7449142e-01
1.6510159e-01
1.5178324e-01
1.3814062e-01
1.1973034e-01
9.7978566e-02
7.4456593e-02
4.1082838e-02
7.6940592e-03
-2.2447926e-02
-4.8396254e-02
-7.4426083e-02
-1.1256126e-01
-1.4695284e-01
-1.6294036e-01
-1.6131684e-01
-1.5474689e-01
-1.5713594e-01
-1.5600821e-01
-1.3956639e-01
-1.0636018e-01
-7.2936775e-02
-5.8175899e-02
-4.9526484e-02
-3.6286816e-02
-1.2950187e-02
1.0797438e-02
1.8564428e-02
2.3039717e-02
3.1351080e-02
4.6176835e-02
6.0364624e-02
5.9139500e-02
6.1359083e-02
7.6088728e-02
9.4441836e-02
1.0808524e-01
1.0789439e-01
1.0598349e-01
1.0058301e-01
8.4974844e-02
6.1799110e-02
2.6582086e-02
-3.3815706e-03
-1.9043931e-02
-2.8229800e-02
-4.1941080e-02
-7.1671504e-02
-9.8405282e-02
-1.0476924e-01
-9.2247345e-02
-7.8468315e-02
-8.1359639e-02
-8.2242295e-02
-6.9787430e-02
-5.0972640e-02
-3.7546645e-02
-4.1644078e-02
-4.5469970e-02
-3.1433049e-02
2.6393074e-03
4.0238703e-02
6.2468482e-02
8.4344792e-02
1.0224753e-01
1.0125859e-01
8.4171143e-02
5.0119024e-02
1.4337231e-02
-1.0086914e-02
-1.9763592e-02
-2.6999841e-02
-4.9540437e-02
-6.8145248e-02
-6.6320660e-02
-4.6354518e-02
-2.4452423e-02
-1.7355641e-02
-5.7832542e-03
1.3062138e-02
2.3113191e-02
2.1894462e-02
6.6876989e-03
-6.0227465e-03
-9.9549082e-03
-1.1615046e-02
-1.6558168e-02
-3.4060592e-02
-4.5485642e-02
-4.2139568e-02
-3.3603023e-02
-2.8016486e-02
-3.3698715e-02
-3.0841230e-02
-1.5767498e-02
-4.1401167e-03
4.3528475e-04
-6.0352563e-03
-3.9315062e-03
1.0295398e-02
2.0342503e-02
2.4586011e-02
2.1394159e-02
2.9476154e-02
4.8046297e-02
5.7919064e-02
5.9668775e-02
5.4008790e-02
5.5760590e-02
6.0856442e-02
5.6207115e-02
4.5818735e-02
2.8004570e-02
2.1970137e-02
2.7171170e-02
2.4059629e-02
1.2958968e-02
-6.5968210e-03
-1.4832749e-02
-9.4765334e-03
-8.1794609e-03
-1.2239870e-02
-2.3173830e-02
-2.2022169e-02
-9.2472446e-03
-3.9703398e-03
-6.0027904e-03
-1.6026554e-02
-1.5166797e-02
-3.0147071e-03
1.4951676e-03
-9.7042367e-04
-9.9572939e-03
-8.6473358e-03
1.6413127e-03
4.4522640e-03
8.0043781e-04
-1.0119649e-02
-9.1851689e-03
3.4291026e-03
8.5385743e-03
7.5341730e-03
1.3150644e-03
7.6569854e-03
2.5098821e-02
3.3414857e-02
3.2257430e-02
2.2094090e-02
2.2918396e-02
3.4443813e-02
3.6461284e-02
2.8939496e-02
1.1223591e-02
1.6948482e-03
6.4008324e-03
1.2242424e-02
1.3128588e-02
2.4394025e-03
-9.0158422e-04
3.3231698e-03
-4.0752474e-03
-2.2599458e-02
-5.2187470e-02
-7.4410568e-02
-7.9103280e-02
-7.4671506e-02
-6.8749271e-02
-6.9228041e-02
-5.9346734e-02
-4.1393260e-02
-3.4053728e-02
-3.2235123e-02
-3.1813884e-02
-1.9009198e-02
2.1832113e-03
1.3383880e-02
1.4882368e-02
7.2742277e-03
1.0046594e-02
2.2917586e-02
2.6572933e-02
2.2058834e-02
1.0516021e-02
1.1103888e-02
2.2693682e-02
2.5149134e-02
2.0138080e-02
9.8215833e-03
1.3092711e-02
2.8631418e-02
3.6571021e-02
3.6758485e-02
2.8535862e-02
3.0855397e-02
4.3745970e-02
4.7600974e-02
4.3444225e-02
3.2523475e-02
3.3687274e-02
4.5308890e-02
4.6999989e-02
3.9093858e-02
2.1203916e-02
1.2361549e-02
1.2947023e-02
2.9206557e-03
-1.5532595e-02
-4.0083863e-02
-5.4583126e-02
-6.1664847e-02
-8.0319851e-02
-1.0312665e-01
-1.2372202e-01
-1.2995534e-01
-1.2800087e-01
-1.3700125e-01
-1.4275510e-01
-1.3154646e-01
-9.8050831e-02
-5.5456088e-02
-2.2430015e-02
4.2430626e-03
2.7283934e-02
6.4386180e-02
1.1422774e-01
1.5742941e-01
1.9331984e-01
2.0589449e-01
1.9972443e-01
1.9115186e-01
1.7655536e-01
1.5856873e-01
1.3401682e-01
1.1228258e-01
9.3382141e-02
6.3639801e-02
3.0676736e-02
-1.0790293e-03
-2.0742956e-02
-3.3903121e-02
-5.8878603e-02
-8.3693668e-02
-9.7705095e-02
-9.4668464e-02
-8.4319475e-02
-8.4157079e-02
-8.6758124e-02
-8.4739990e-02
-6.8482299e-02
-4.8139010e-02
-4.4118171e-02
-4.7767164e-02
-5.0053278e-02
-4.0499685e-02
-2.8169511e-02
-3.2315660e-02
-3.7437559e-02
-3.6093093e-02
-3.1673300e-02
-3.2413212e-02
-5.1189913e-02
-7.2724187e-02
-8.2350552e-02
-7.5675293e-02
-6.5285782e-02
-6.8788964e-02
-6.6976567e-02
-4.1852915e-02
6.5237196e-03
6.0519351e-02
1.0151300e-01
1.3970286e-01
1.6696361e-01
1.7440071e-01
1.7120956e-01
1.5721512e-01
1.4902596e-01
1.4432095e-01
1.2615898e-01
9.4842249e-02
4.8747571e-02
7.4782364e-03
-1.2966007e-02
-1.6251108e-02
-1.8366182e-02
-3.5800037e-02
-5.1418378e-02
-5.5405641e-02
-5.4220658e-02
-5.7744905e-02
-7.7277467e-02
-9.4757094e-02
-9.3268378e-02
-7.3959390e-02
-5.5724926e-02
-5.7615545e-02
-6.0152930e-02
-5.1563570e-02
-3.9449965e-02
-3.5184912e-02
-5.0412731e-02
-6.5903531e-02
-6.5021365e-02
-4.9986840e-02
-3.7669297e-02
-4.5551268e-02
-5.4016955e-02
-4.7935005e-02
-3.1251855e-02
-1.8022186e-02
-2.2597825e-02
-2.4931507e-02
-1.1062324e-02
1.4260524e-02
3.8700541e-02
4.9043265e-02
6.4593192e-02
8.5031426e-02
9.1021675e-02
8.3036238e-02
6.1587005e-02
4.6274149e-02
4.5070930e-02
4.7108756e-02
4.4242750e-02
2.7594229e-02
1.6391099e-02
1.6574470e-02
1.5058100e-02
6.6349619e-03
-1.4188331e-02
-2.7570366e-02
-2.5718375e-02
-2.0556043e-02
-2.0242294e-02
-3.2950272e-02
-3.8496929e-02
-2.8614154e-02
-1.5211926e-02
-6.2571019e-03
-1.0022162e-02
-7.2540331e-03
2.9550352e-03
2.6635776e-03
-5.4031127e-03
-1.9197664e-02
-2.1674067e-02
-1.2687526e-02
-9.2752788e-03
-1.3478401e-02
-2.7479987e-02
-3.3228302e-02
-2.4506973e-02
-1.2532410e-02
-4.0942877e-03
-6.9605144e-03
-6.8677686e-04
1.5741187e-02
2.2893502e-02
2.1189294e-02
1.1097297e-02
1.2234128e-02
2.4749261e-02
2.9806782e-02
2.7236792e-02
1.6298412e-02
1.6426432e-02
2.7405231e-02
2.9986975e-02
2.4135123e-02
9.1512434e-03
5.4943811e-03
1.4494646e-02
1.6859248e-02
1.1989685e-02
-7.5294476e-04
-1.2380615e-03
1.0844002e-02
1.5695117e-02
1.3118078e-02
2.8035225e-03
4.7466354e-03
1.9049311e-02
2.3523538e-02
1.6163507e-02
-4.3092609e-04
-4.5457938e-03
4.2170947e-03
6.9940079e-03
3.3390781e-03
-7.1599786e-03
-5.2294854e-03
8.8488119e-03
1.5723973e-02
1.5283065e-02
6.8185613e-03
8.5785502e-03
2.1696346e-02
2.8938044e-02
2.8592801e-02
1.8573158e-02
1.9020657e-02
3.3809201e-02
4.6180858e-02
5.1974770e-02
4.7294140e-02
5.1324978e-02
6.3608624e-02
6.2568691e-02
4.6738878e-02
1.7328457e-02
-5.6928931e-03
-1.7042902e-02
-3.0527673e-02
-4.5908015e-02
-6.3216778e-02
-6.9824997e-02
-7.0901996e-02
-8.4896670e-02
-1.0262878e-01
-1.1513328e-01
-1.1433644e-01
-1.0896740e-01
-1.1619278e-01
-1.2415141e-01
-1.2141912e-01
-1.0243904e-01
-7.5837878e-02
-5.5647095e-02
-4.1236363e-02
-3.2789045e-02
-1.5778993e-02
8.1219293e-03
2.2181558e-02
2.9374531e-02
3.3156433e-02
4.8009251e-02
6.9669894e-02
7.9900642e-02
7.9035076e-02
6.7797640e-02
6.5970510e-02
7.3291816e-02
7.1035282e-02
6.0649704e-02
4.2716655e-02
3.6168820e-02
4.0637879e-02
3.6673557e-02
2.6279681e-02
1.1392918e-02
9.4460082e-03
1.8231089e-02
1.8271706e-02
1.1667591e-02
-7.2555998e-04
-2.0959347e-03
7.5931864e-03
1.0631689e-02
6.5216717e-03
-5.9105575e-03
-7.9327878e-03
7.5328690e-04
6.6383201e-04
-6.9420387e-03
-1.9945962e-02
-2.0485371e-02
-1.0482201e-02
-9.0311472e-03
-1.2551823e-02
-1.8358400e-02
-1.1359475e-02
4.2304974e-03
8.3269774e-03
1.4775294e-03
-1.6019421e-02
-2.5422791e-02
-2.5097996e-02
-3.2265722e-02
-3.9416156e-02
-3.9064954e-02
-2.0443299e-02
6.4925932e-03
2.2062153e-02
2.7448403e-02
2.1274775e-02
2.1761016e-02
3.1189389e-02
3.1514457e-02
2.3123256e-02
6.7977903e-03
1.3134071e-03
5.2947808e-03
-1.7829281e-03
-1.1145002e-02
-1.4431041e-02
-1.8909810e-03
1.8531527e-02
2.8314174e-02
3.1791449e-02
3.0728468e-02
3.7937243e-02
5.1456231e-02
5.3850850e-02
4.9969161e-02
4.4501650e-02
5.1249443e-02
6.4350322e-02
6.3578925e-02
4.9597580e-02
2.3729768e-02
4.9176396e-03
-8.5499588e-03
-3.7220234e-02
-6.6168385e-02
-8.1480782e-02
-8.0150714e-02
-7.6991604e-02
-9.1272225e-02
-1.0800968e-01
-1.1198245e-01
-9.8377357e-02
-8.2570575e-02
-8.4450515e-02
-8.4131700e-02
-6.2368521e-02
-1.9099155e-02
2.7084003e-02
5.7137287e-02
7.4757717e-02
8.2679405e-02
9.6023894e-02
1.1172470e-01
1.0809416e-01
9.3115846e-02
7.7345568e-02
7.0112849e-02
6.3752510e-02
4.1410170e-02
1.5088608e-02
-3.8354669e-03
-8.3038294e-03
-1.0631941e-02
-3.1170223e-02
-5.2653470e-02
-5.8265994e-02
-4.7357276e-02
-3.7075731e-02
-4.6221429e-02
-5.5426812e-02
-5.3200079e-02
-4.7488247e-02
-4.9771984e-02
-7.1424277e-02
-9.2829449e-02
-9.4842676e-02
-7.7628599e-02
-6.0213311e-02
-6.3080528e-02
-6.8162045e-02
-5.8983695e-02
-3.7380712e-02
-1.6779974e-02
-1.1382819e-02
-5.2553466e-03
1.4010080e-02
4.7194982e-02
8.2248750e-02
1.0293536e-01
1.1929970e-01
1.3098984e-01
1.3731873e-01
1.3889277e-01
1.2649959e-01
1.1653125e-01
1.1059946e-01
9.7279341e-02
7.4231414e-02
3.5233392e-02
-1.3272096e-03
-1.9052403e-02
-1.9453281e-02
-1.8725830e-02
-3.4458399e-02
-4.7724969e-02
-4.8668759e-02
-4.6699169e-02
-5.2560861e-02
-7.7554217e-02
-1.0289908e-01
-1.1126175e-01
-1.0424226e-01
-9.8352815e-02
-1.1010632e-01
-1.2012945e-01
-1.1211419e-01
-8.8239098e-02
-6.5187249e-02
-6.0235255e-02
-5.3515105e-02
-2.9363507e-02
8.5072150e-03
4.4997938e-02
6.4301077e-02
8.6623656e-02
1.1708406e-01
1.4097654e-01
1.5487127e-01
1.5064214e-01
1.4320862e-01
1.3896563e-01
1.2600801e-01
1.0251993e-01
6.5687281e-02
3.4417208e-02
1.6509570e-02
6.1000846e-04
-2.2265058e-02
-6.1449543e-02
-9.8004363e-02
-1.1339279e-01
-1.0769090e-01
-9.9632373e-02
-1.0860018e-01
-1.1475721e-01
-1.0383285e-01
-8.0770123e-02
-5.9645261e-02
-5.5241984e-02
-4.8939888e-02
-3.0372998e-02
-7.0806563e-03
1.0607833e-02
6.3870561e-03
-5.1304984e-03
-5.2577098e-03
5.6352613e-03
1.6463972e-02
1.5587734e-02
2.1784733e-02
3.6384015e-02
4.2952335e-02
3.9982206e-02
2.5199610e-02
1.8428520e-02
2.5290017e-02
3.2088513e-02
3.3416919e-02
2.4024408e-02
2.3669045e-02
3.2564248e-02
3.2646081e-02
2.4747209e-02
8.7058635e-03
3.6706088e-03
9.6651050e-03
7.4211425e-03
-4.0431158e-03
-2.5675845e-02
-3.7940622e-02
-3.4030681e-02
-2.6446239e-02
-2.2275114e-02
-2.8250935e-02
-2.3454338e-02
-6.8204143e-03
2.6634147e-03
4.6253472e-03
-1.4157857e-03
4.1289015e-03
2.0784455e-02
2.8808306e-02
2.8395212e-02
1.9536162e-02
2.1825417e-02
3.8746353e-02
5.4553866e-02
6.5920570e-02
6.8703092e-02
8.2219453e-02
1.0732535e-01
1.2455960e-01
1.3263755e-01
1.3096316e-01
1.3842985e-01
1.5415477e-01
1.5827149e-01
1.5064132e-01
1.3129171e-01
1.1703604e-01
1.0846686e-01
8.9814376e-02
5.8273645e-02
9.7233811e-03
-3.9076079e-02
-7.3793987e-02
-9.7936079e-02
-1.1737296e-01
-1.3890411e-01
-1.5633614e-01
-1.6471768e-01
-1.6744318e-01
-1.7016955e-01
-1.7740079e-01
-1.8268095e-01
-1.8112603e-01
-1.7392108e-01
-1.6489342e-01
-1.5838605e-01
-1.5013018e-01
-1.3786378e-01
-1.2344642e-01
-1.1078576e-01
-1.0447103e-01
-9.7475873e-02
-8.5979181e-02
-7.2395097e-02
-5.8215215e-02
-4.5834963e-02
-2.8002082e-02
-5.6100554e-03
1.4611489e-02
3.1763547e-02
4.3292317e-02
6.0756850e-02
8.6517837e-02
1.1168943e-01
1.3313874e-01
1.4715333e-01
1.6846621e-01
1.9319396e-01
2.0341053e-01
1.9974544e-01
1.7970245e-01
1.5984605e-01
1.4446103e-01
1.1860506e-01
8.1836665e-02
3.4018601e-02
-7.6745474e-03
-2.9775140e-02
-3.5923269e-02
-3.8551991e-02
-5.0480769e-02
-5.6765409e-02
-5.4857669e-02
-5.8346879e-02
-7.1797558e-02
-9.8380011e-02
-1.2069767e-01
-1.3206059e-01
-1.4262542e-01
-1.5056079e-01
-1.5374229e-01
-1.4374571e-01
-1.2372837e-01
-1.0514429e-01
-8.7672932e-02
-7.1536250e-02
-4.5849721e-02
-1.2668678e-02
1.4914466e-02
3.2594356e-02
3.5991116e-02
4.5720520e-02
6.3262691e-02
7.0160091e-02
6.7860244e-02
5.7390163e-02
5.6662877e-02
6.6436515e-02
7.0052506e-02
6.6194250e-02
5.2858739e-02
5.0429100e-02
5.9803013e-02
6.1410057e-02
5.5568898e-02
4.2149217e-02
3.9892803e-02
4.8422868e-02
4.8668524e-02
4.1494157e-02
2.4744751e-02
1.5993606e-02
1.7761592e-02
1.2334778e-02
-6.5084265e-04
-2.1611474e-02
-3.0678306e-02
-2.7202694e-02
-3.0246059e-02
-4.0644366e-02
-5.9627329e-02
-6.6402700e-02
-5.9216034e-02
-5.7394323e-02
-6.1545728e-02
-7.3261462e-02
-7.4343208e-02
-6.3932536e-02
-6.0104813e-02
-6.1459318e-02
-6.7544039e-02
-5.9684242e-02
-3.7731938e-02
-1.9509391e-02
-3.5014906e-03
8.9251366e-03
3.5433153e-02
7.7503057e-02
1.1792123e-01
1.5740952e-01
1.7883285e-01
1.8368198e-01
1.8775800e-01
1.8924408e-01
1.8889608e-01
1.7150591e-01
1.4159703e-01
1.1345002e-01
8.1762498e-02
4.6072409e-02
5.3514395e-03
-2.1247317e-02
-3.3416172e-02
-5.1079574e-02
-7.3178224e-02
-9.8780575e-02
-1.1091083e-01
-1.0674890e-01
-1.0133843e-01
-9.6013317e-02
-9.3794164e-02
-8.1878774e-02
-6.2423451e-02
-5.2384701e-02
-5.0507338e-02
-5.5941155e-02
-5.1601376e-02
-3.7376329e-02
-3.0428989e-02
-3.0293288e-02
-3.7192182e-02
-3.4527804e-02
-2.0100045e-02
-8.9149059e-03
-2.8094882e-03
-3.4080680e-03
6.5422499e-03
2.4830428e-02
3.2517880e-02
3.3265084e-02
3.0012664e-02
3.9208741e-02
5.8342329e-02
6.7710974e-02
6.7409879e-02
4.9519821e-02
2.4389601e-02
7.1474669e-03
-5.5205311e-03
-1.7557148e-02
-3.5404335e-02
-4.4559422e-02
-4.2261900e-02
-4.2679065e-02
-4.6241174e-02
-5.3613237e-02
-4.8958048e-02
-3.2203259e-02
-1.9745887e-02
-1.3946349e-02
-1.6873859e-02
-9.6951659e-03
6.3686869e-03
1.1552404e-02
6.7593783e-03
-7.5475578e-03
-1.2339123e-02
-3.8186116e-03
2.5441444e-03
3.8046756e-03
-3.6934370e-03
-1.3854377e-03
1.1453474e-02
1.6521898e-02
1.3106731e-02
6.6403844e-04
-1.7089004e-04
1.1019608e-02
1.4552573e-02
1.0609529e-02
-1.2128329e-03
-1.3078751e-03
1.0928477e-02
1.6505232e-02
1.5620655e-02
5.9865894e-03
6.0186947e-03
1.8034360e-02
2.3488571e-02
2.2733825e-02
1.5098146e-02
1.8420392e-02
3.3980728e-02
4.4132640e-02
4.9313726e-02
4.4258139e-02
4.2907837e-02
4.9451526e-02
4.8738991e-02
4.1124460e-02
2.6711346e-02
2.4744221e-02
3.5110294e-02
3.8107068e-02
3.3007386e-02
1.7790626e-02
1.0818344e-02
1.2670536e-02
3.7418826e-03
-1.4055773e-02
-3.8520560e-02
-5.2582131e-02
-5.5246604e-02
-6.2684959e-02
-7.3562612e-02
-8.6493124e-02
-8.6622676e-02
-7.4098593e-02
-6.3869612e-02
-5.7861537e-02
-5.9987570e-02
-5.5958339e-02
-4.3636937e-02
-3.6983488e-02
-3.1586886e-02
-2.3523669e-02
-7.8558732e-04
2.9449137e-02
4.7878585e-02
5.5412237e-02
5.2187859e-02
5.7346070e-02
7.2227652e-02
7.7990879e-02
7.4661980e-02
6.2509177e-02
6.0034305e-02
6.6597203e-02
6.2744918e-02
4.7797050e-02
2.1008880e-02
2.2519890e-03
-7.1032453e-03
-2.6243549e-02
-4.8942994e-02
-6.8826088e-02
-7.4458724e-02
-6.6277327e-02
-5.6300295e-02
-5.1470343e-02
-5.9081160e-02
-5.9784390e-02
-5.2256221e-02
-5.4602190e-02
-6.0956863e-02
-6.5748684e-02
-5.6330703e-02
-3.5839759e-02
-2.0232147e-02
-1.2013329e-02
-1.3645138e-02
-5.9257543e-03
1.1172663e-02
1.8865598e-02
1.7805611e-02
8.3642097e-03
9.7794137e-03
2.2417015e-02
2.7758222e-02
2.5701223e-02
1.5886443e-02
1.8351090e-02
3.3564382e-02
4.1778406e-02
4.2907340e-02
3.3751521e-02
3.0353237e-02
3.6452115e-02
3.6800890e-02
3.1639410e-02
1.9996119e-02
2.0746404e-02
3.4229191e-02
4.0977823e-02
4.1327775e-02
3.4960166e-02
4.0427951e-02
5.7515015e-02
6.6694066e-02
6.9039327e-02
6.4608043e-02
7.0742559e-02
8.6862342e-02
9.4043179e-02
9.7372418e-02
9.5754883e-02
9.6502479e-02
1.0292047e-01
1.0458308e-01
9.7105646e-02
7.5640727e-02
5.8124502e-02
4.9462519e-02
3.5788925e-02
1.5119135e-02
-1.5246656e-02
-4.2410177e-02
-6.1830722e-02
-8.3070803e-02
-1.0538191e-01
-1.2835259e-01
-1.4589117e-01
-1.5191510e-01
-1.4738412e-01
-1.3685041e-01
-1.2486703e-01
-1.0736101e-01
-8.6510804e-02
-6.9146891e-02
-6.3965459e-02
-7.9843271e-02
-1.0303409e-01
-1.2095076e-01
-1.3499083e-01
-1.4534696e-01
-1.5198195e-01
-1.5135647e-01
-1.4265236e-01
-1.2774418e-01
-1.0811595e-01
-8.5611950e-02
-5.5200240e-02
-2.1198265e-02
7.4383512e-03
2.4584811e-02
2.3830078e-02
2.2811488e-02
3.4767316e-02
5.5989432e-02
7.2789036e-02
7.1097385e-02
7.1388890e-02
8.0308220e-02
8.4774969e-02
8.0378392e-02
5.9470516e-02
3.9351504e-02
3.1898915e-02
2.9266096e-02
2.6894667e-02
1.9946222e-02
2.5141581e-02
3.9978801e-02
4.5550845e-02
4.1921538e-02
2.9024798e-02
2.7206636e-02
3.6592471e-02
3.7193145e-02
2.9497670e-02
1.4016318e-02
1.0638971e-02
2.0294562e-02
2.4252093e-02
2.1948733e-02
1.1816548e-02
1.2768446e-02
2.6616374e-02
3.5258232e-02
3.7570431e-02
2.8566404e-02
2.3717704e-02
2.7490295e-02
2.4943651e-02
1.5574945e-02
-1.0366719e-03
-4.5922257e-03
4.7775514e-03
6.6769284e-03
5.2240387e-04
-1.4379129e-02
-1.7679638e-02
-8.2268961e-03
-5.5665020e-03
-9.8499645e-03
-2.1230448e-02
-2.0472064e-02
-8.0414979e-03
-3.6468335e-03
-7.2606251e-03
-1.8723212e-02
-1.8302281e-02
-2.3122729e-03
1.3780963e-02
2.6682632e-02
3.0330557e-02
4.0987449e-02
5.9736359e-02
6.9407903e-02
6.9617948e-02
5.9529365e-02
5.8637916e-02
6.6727575e-02
6.4575042e-02
5.2009187e-02
2.8207204e-02
1.2397823e-02
1.0083095e-02
7.4628726e-03
-1.4501561e-03
-2.3370614e-02
-3.9544271e-02
-4.1243735e-02
-3.9700573e-02
-4.3470238e-02
-6.0627045e-02
-7.2449559e-02
-7.0039262e-02
-6.3768297e-02
-6.1558553e-02
-7.2914661e-02
-8.3245431e-02
-8.2240022e-02
-7.6161634e-02
-7.4822824e-02
-8.7646419e-02
-9.5557063e-02
-8.6606372e-02
-6.7220220e-02
-4.9918195e-02
-4.7311308e-02
-3.9870360e-02
-2.0507093e-02
-1.0028259e-03
1.3860340e-02
1.8754102e-02
3.1603990e-02
5.2302007e-02
6.3413993e-02
6.4354684e-02
5.3836246e-02
4.9355031e-02
5.6618224e-02
6.6405070e-02
7.4201940e-02
7.0994175e-02
7.3951237e-02
8.4255128e-02
8.4895450e-02
7.6315996e-02
5.8108730e-02
5.0059561e-02
5.3538664e-02
5.0323741e-02
3.8381121e-02
1.5324251e-02
4.4849708e-04
-2.9680275e-03
-1.0504013e-02
-2.5717480e-02
-5.2597415e-02
-7.1500457e-02
-7.3239887e-02
-6.7692861e-02
-6.3917370e-02
-7.1587037e-02
-7.1472411e-02
-5.6907372e-02
-4.0486439e-02
-2.8762340e-02
-3.0626373e-02
-2.8874943e-02
-1.6592545e-02
-5.9737992e-03
-1.6246854e-03
-8.5471533e-03
-7.2557771e-03
7.9195822e-03
2.3401519e-02
3.3627127e-02
3.2439173e-02
3.9623034e-02
5.6082405e-02
6.2719646e-02
5.9246058e-02
4.5222769e-02
3.9591826e-02
4.1752227e-02
3.2874069e-02
1.3405510e-02
-1.7112333e-02
-3.9270928e-02
-4.1611758e-02
-3.1460039e-02
-2.0031167e-02
-1.9507375e-02
-1.1686340e-02
6.6866480e-03
2.1221105e-02
2.7433975e-02
2.0294141e-02
1.9768161e-02
3.0599323e-02
3.8542974e-02
3.9137866e-02
2.7274749e-02
2.2240212e-02
2.6239528e-02
2.2793113e-02
9.0870234e-03
-1.8282826e-02
-4.0262949e-02
-4.4055315e-02
-3.5141753e-02
-2.7036612e-02
-3.4375306e-02
-3.7149868e-02
-2.2536125e-02
1.8991738e-03
2.3272297e-02
2.6920685e-02
2.8071140e-02
3.7243301e-02
5.0762317e-02
5.9657388e-02
5.2059583e-02
4.1459584e-02
3.5079031e-02
3.2783155e-02
2.5881118e-02
-5.5047124e-04
-2.7868984e-02
-3.9314433e-02
-3.5117387e-02
-3.1926060e-02
-4.8380629e-02
-6.6412082e-02
-6.9809751e-02
-5.9150096e-02
-5.1149696e-02
-6.4100016e-02
-7.9134889e-02
-7.8398758e-02
-6.1600547e-02
-4.5712790e-02
-5.3223176e-02
-7.1452126e-02
-7.9903622e-02
-7.1955593e-02
-6.3786859e-02
-7.4384264e-02
-8.3955948e-02
-7.4287902e-02
-4.5715379e-02
-1.4937600e-02
5.3903617e-04
5.7409408e-03
4.5180600e-03
1.1803900e-02
2.5007792e-02
2.6040382e-02
2.5034777e-02
3.0709316e-02
5.2889494e-02
8.4418679e-02
1.0777485e-01
1.2504445e-01
1.2816995e-01
1.2576160e-01
1.2548416e-01
1.1675770e-01
1.0432706e-01
9.0113939e-02
8.6486614e-02
9.1339412e-02
8.6823297e-02
7.4737165e-02
5.4319012e-02
3.9983873e-02
3.1741548e-02
1.1837400e-02
-1.2760517e-02
-3.5582365e-02
-4.4675511e-02
-4.7581301e-02
-6.4896812e-02
-8.5645540e-02
-9.9523342e-02
-9.8659059e-02
-9.3359774e-02
-1.0294609e-01
-1.1683405e-01
-1.2437832e-01
-1.1628604e-01
-1.0369117e-01
-1.0696623e-01
-1.1029255e-01
-9.7982798e-02
-6.4742938e-02
-2.4937522e-02
1.9261465e-03
1.8909302e-02
2.7773950e-02
4.4852147e-02
6.9231235e-02
8.2663887e-02
8.6872070e-02
8.2231702e-02
8.6164182e-02
9.9056656e-02
1.0287591e-01
9.8103887e-02
8.4332923e-02
8.0349661e-02
8.6156589e-02
8.2298933e-02
7.0055160e-02
5.0486829e-02
4.1800448e-02
4.2803142e-02
3.0038999e-02
5.4804657e-03
-2.1503615e-02
-3.3958256e-02
-3.8471019e-02
-5.5188817e-02
-7.5309313e-02
-9.0580378e-02
-9.1498916e-02
-8.2997864e-02
-8.0643680e-02
-8.3235956e-02
-9.0352092e-02
-8.9424388e-02
-8.0031496e-02
-7.5864638e-02
-7.4140889e-02
-7.1801816e-02
-5.7063580e-02
-3.0461971e-02
-3.7359490e-03
2.1449045e-02
4.2099143e-02
7.3143520e-02
1.1145118e-01
1.3008871e-01
1.2101818e-01
9.2742337e-02
7.3359657e-02
6.3222681e-02
4.2840050e-02
1.2664980e-02
-2.7787664e-02
-6.0477894e-02
-7.7724296e-02
-9.0259585e-02
-9.9291563e-02
-1.0693150e-01
-9.8899293e-02
-7.9437763e-02
-6.6737149e-02
-5.9981878e-02
-6.0410296e-02
-5.0252924e-02
-2.8066261e-02
-1.0975307e-02
1.7570934e-03
8.4128535e-03
2.5122233e-02
5.1977073e-02
6.9946494e-02
7.7808600e-02
7.1447556e-02
6.5836938e-02
6.8292569e-02
6.8710370e-02
6.9369945e-02
6.3445000e-02
6.0949907e-02
6.6628983e-02
6.9658249e-02
7.2130650e-02
7.0839315e-02
7.5457357e-02
8.2060348e-02
7.9873466e-02
7.5456216e-02
6.7342759e-02
6.8636686e-02
7.5496342e-02
7.3679477e-02
6.7368647e-02
5.5182063e-02
5.5109810e-02
6.6118252e-02
6.7448345e-02
5.8493507e-02
3.9599629e-02
3.0492705e-02
2.9996520e-02
1.6841576e-02
-8.4009617e-03
-4.4790244e-02
-7.4716921e-02
-8.9658580e-02
-9.9118857e-02
-1.1003233e-01
-1.2948779e-01
-1.4282422e-01
-1.3916553e-01
-1.2269708e-01
-1.0938272e-01
-1.1553547e-01
-1.2255012e-01
-1.1567002e-01
-9.8974187e-02
-8.7433766e-02
-9.6201110e-02
-1.0535294e-01
-9.5748084e-02
-6.9345527e-02
-4.6087578e-02
-4.3410590e-02
-4.0424572e-02
-1.9675423e-02
1.7076418e-02
5.3320323e-02
7.2542451e-02
9.4035684e-02
1.1869023e-01
1.2938970e-01
1.2634019e-01
1.0926183e-01
9.6212407e-02
9.0678062e-02
7.9961220e-02
6.0074766e-02
2.5480287e-02
-6.8844546e-03
-2.4779865e-02
-3.0347366e-02
-3.5846318e-02
-5.5996417e-02
-7.3736685e-02
-8.1066835e-02
-8.3682671e-02
-8.9459521e-02
-1.0985473e-01
-1.2996862e-01
-1.3834425e-01
-1.3360571e-01
-1.2551833e-01
-1.2882890e-01
-1.2914618e-01
-1.2168923e-01
-1.0958011e-01
-9.6366142e-02
-9.1224538e-02
-7.8046898e-02
-5.2697448e-02
-2.0641684e-02
1.6848645e-02
5.3027909e-02
8.9391241e-02
1.1056256e-01
1.1979929e-01
1.3490332e-01
1.5425715e-01
1.7840211e-01
1.8815623e-01
1.7873104e-01
1.6556231e-01
1.5489653e-01
1.5249592e-01
1.4007193e-01
1.1826746e-01
1.0550730e-01
1.0095770e-01
1.0456230e-01
9.7402864e-02
7.9676160e-02
6.9449218e-02
6.5455568e-02
6.7468404e-02
5.7123394e-02
3.4643182e-02
1.7281047e-02
3.1703729e-03
-7.9766193e-03
-2.2493887e-02
-2.8560075e-02
-2.1845015e-02
-1.6935955e-02
-1.4212571e-02
-1.8315865e-02
-1.5617437e-02
-3.5199442e-03
1.9141290e-03
1.1305186e-03
-9.6217392e-03
-1.6573476e-02
-1.7019027e-02
-2.7042241e-02
-4.4228510e-02
-6.7098403e-02
-8.2224486e-02
-8.4085142e-02
-8.2469249e-02
-7.2931653e-02
-5.6992192e-02
-3.9812039e-02
-2.3709297e-02
-1.0345931e-02
-9.8577662e-04
-2.8950073e-05
9.6071090e-04
6.3920252e-03
1.1021840e-02
1.5449590e-02
1.7688895e-02
1.1276265e-02
-1.2339116e-02
-4.5484729e-02
-7.2325138e-02
-8.9968305e-02
-9.2765371e-02
-8.4303816e-02
-7.5227953e-02
-6.2822339e-02
-4.4121974e-02
-1.3313031e-02
1.7912531e-02
3.2608597e-02
3.0030549e-02
7.9574941e-03
-1.4143590e-02
-2.6504158e-02
-3.8809569e-02
-4.9944759e-02
-5.9594091e-02
-5.8290986e-02
-4.2671961e-02
-1.8711933e-02
4.6445986e-03
1.8137552e-02
3.6880472e-02
5.8009802e-02
6.5462238e-02
6.0178985e-02
4.1990918e-02
3.0569915e-02
3.3152478e-02
3.7970835e-02
3.7237667e-02
2.2893857e-02
1.3112035e-02
1.4207903e-02
1.4962123e-02
1.0180470e-02
-6.7622447e-03
-1.7372880e-02
-9.4405143e-03
9.8984351e-03
2.7542617e-02
3.0569609e-02
3.8057816e-02
5.3767635e-02
6.2637222e-02
6.0873088e-02
4.4219785e-02
2.9632220e-02
2.4956506e-02
2.3808973e-02
1.7972292e-02
-3.8235120e-03
-2.2291495e-02
-3.0831444e-02
-4.2327104e-02
-6.3329027e-02
-1.0017085e-01
-1.3441403e-01
-1.5080972e-01
-1.5108143e-01
-1.4918228e-01
-1.6107469e-01
-1.7134734e-01
-1.7056503e-01
-1.6329114e-01
-1.5763226e-01
-1.6350426e-01
-1.6050747e-01
-1.3731559e-01
-1.0189008e-01
-6.3415178e-02
-3.1094683e-02
7.2664647e-03
4.4330652e-02
7.0983037e-02
9.7477829e-02
1.2468154e-01
1.5892328e-01
1.8663050e-01
2.0314527e-01
2.2391143e-01
2.4817103e-01
2.7489950e-01
2.8649946e-01
2.8305747e-01
2.8225675e-01
2.7818093e-01
2.6568782e-01
2.3279080e-01
1.8536206e-01
1.4096666e-01
9.7879831e-02
6.0276161e-02
1.9868314e-02
-2.3975101e-02
-6.3745156e-02
-1.0493260e-01
-1.3733483e-01
-1.5781812e-01
-1.6652858e-01
-1.6906893e-01
-1.7885288e-01
-1.8909274e-01
-1.9468453e-01
-1.8729760e-01
-1.7150110e-01
-1.6256201e-01
-1.5347816e-01
-1.3760901e-01
-1.0495701e-01
-6.4452224e-02
-3.5667258e-02
-1.4428867e-02
1.4296695e-03
2.4274785e-02
5.2105415e-02
6.8138314e-02
7.4020937e-02
6.9355531e-02
6.9745947e-02
7.5823494e-02
7.0731282e-02
5.8924202e-02
4.3969472e-02
4.0918659e-02
4.6928922e-02
4.3760279e-02
3.1739640e-02
1.0638555e-02
-8.5154411e-04
-1.5673979e-03
-9.5281302e-03
-2.0286605e-02
-2.9487787e-02
-2.3891709e-02
-7.8193857e-03
5.8143706e-04
-3.7439329e-04
-1.1952139e-02
-1.4160428e-02
-6.2232002e-03
-7.6565118e-03
-1.8425906e-02
-3.8108742e-02
-4.8395560e-02
-5.0073474e-02
-6.2492417e-02
-7.3348352e-02
-7.0100263e-02
-4.6147932e-02
-1.3965854e-02
7.6004819e-03
1.8296058e-02
1.7550318e-02
2.4804598e-02
4.0526199e-02
4.6126397e-02
4.2548955e-02
3.0320434e-02
2.8775002e-02
3.8582262e-02
4.0956852e-02
3.4875794e-02
1.9609095e-02
1.4816855e-02
2.1660152e-02
2.1420676e-02
1.3706052e-02
-1.3604126e-03
-4.8313262e-03
8.3425625e-03
2.4234210e-02
3.7584083e-02
4.2279556e-02
5.5374227e-02
7.6584315e-02
8.7529104e-02
8.7090325e-02
7.3887149e-02
6.7249413e-02
7.0362381e-02
6.6948601e-02
5.4225260e-02
2.8737502e-02
7.7639723e-03
2.0316870e-03
4.2422941e-03
5.4318806e-03
-4.0967579e-03
-1.0927103e-02
-5.0635505e-03
9.2593102e-03
2.2054861e-02
2.1967527e-02
1.9920591e-02
2.1734322e-02
2.1273498e-02
1.4448305e-02
-3.1899900e-03
-2.3855494e-02
-4.1531111e-02
-5.5700698e-02
-6.5002821e-02
-7.1449068e-02
-7.3717426e-02
-7.0151524e-02
-6.2041852e-02
-5.5040345e-02
-5.4707106e-02
-5.6673296e-02
-5.5199021e-02
-4.9244821e-02
-5.2310411e-02
-7.8639223e-02
-1.1592044e-01
-1.5742045e-01
-2.0961767e-01
-2.7292207e-01
-3.4627364e-01
-4.2132253e-01
-4.9790303e-01
-5.8176861e-01
-6.6752648e-01
-7.5000237e-01
-8.2067704e-01
-8.7284353e-01
-9.0452103e-01
-9.1706682e-01
-9.1179744e-01
-8.7247316e-01
-7.8392983e-01
-6.4042743e-01
-4.5091767e-01
