-4.0875937e-01
-1.1921555e+00
-1.8424828e+00
-2.2605468e+00
-2.4451807e+00
-2.4559181e+00
-2.3399825e+00
-2.0615787e+00
-1.4864180e+00
-4.3932238e-01
1.1887399e+00
3.3231731e+00
5.4828907e+00
6.8182448e+00
6.6893275e+00
5.0811070e+00
2.5698353e+00
-6.4038842e-02
-2.3342021e+00
-4.0048283e+00
-4.8559432e+00
-4.7951969e+00
-3.9840327e+00
-2.7505376e+00
-1.4193259e+00
-1.7706809e-01
9.6405481e-01
2.0480224e+00
2.9344820e+00
3.2024579e+00
2.4997015e+00
1.0542311e+00
-3.9423593e-01
-1.2292688e+00
-1.3365312e+00
-9.8841915e-01
-5.7561977e-01
-4.0063921e-01
-5.9109567e-01
-1.0405986e+00
-1.4964491e+00
-1.7829373e+00
-1.8524385e+00
-1.7228297e+00
-1.4084129e+00
-8.4412584e-01
1.0522061e-01
1.5507679e+00
3.4244474e+00
5.1986676e+00
5.8961540e+00
4.8141993e+00
2.2990683e+00
-4.4201967e-01
-2.3361135e+00
-3.0256907e+00
-2.7049618e+00
-1.8543636e+00
-1.0378737e+00
-6.2132006e-01
-6.1362901e-01
-8.0829021e-01
-1.0054634e+00
-1.1222194e+00
-1.1586852e+00
-1.0871418e+00
-8.4539675e-01
-4.0557252e-01
2.2876185e-01
1.0253390e+00
1.8333782e+00
2.3384075e+00
2.2543347e+00
1.5663965e+00
5.1232425e-01
-5.8985113e-01
-1.4735822e+00
-2.0091300e+00
-2.2166923e+00
-2.1801664e+00
-1.9170997e+00
-1.3319228e+00
-3.2062737e-01
1.0512627e+00
2.3933195e+00
3.1089793e+00
2.8829136e+00
2.0343736e+00
1.2635986e+00
1.0529520e+00
1.3034330e+00
1.4225827e+00
8.7737007e-01
-3.1531149e-01
-1.6874371e+00
-2.6577639e+00
-2.8736056e+00
-2.4163090e+00
-1.6428299e+00
-8.9110244e-01
-2.9279883e-01
2.2475865e-01
7.7440202e-01
1.3211658e+00
1.6228705e+00
1.4453350e+00
8.1593398e-01
1.3797327e-02
-6.3569316e-01
-9.6583936e-01
-1.0329568e+00
-1.0229739e+00
-1.0680827e+00
-1.1732677e+00
-1.2959737e+00
-1.3702792e+00
-1.2734403e+00
-8.5239138e-01
1.1099344e-02
1.3077781e+00
2.7138392e+00
3.5306480e+00
3.1317730e+00
1.6048787e+00
-1.9780357e-01
-1.3263815e+00
-1.4535309e+00
-1.0614820e+00
-6.0193065e-01
6.0056654e-02
8.4686280e-01
1.2698097e+00
1.0645505e+00
4.5107543e-01
-7.9477849e-02
-2.3311068e-01
-1.7138667e-01
-3.1224608e-01
-8.6607499e-01
-1.5749319e+00
-1.9255026e+00
-1.5812102e+00
-5.4838225e-01
8.3949904e-01
1.9948649e+00
2.4016258e+00
1.9502905e+00
9.4992984e-01
-1.3420457e-01
-9.5777621e-01
-1.3942857e+00
-1.4657606e+00
-1.2220723e+00
-6.8044659e-01
9.2330698e-02
8.8993591e-01
1.4246746e+00
1.4726665e+00
1.0394059e+00
3.7939671e-01
-2.0606049e-01
-5.4583903e-01
-6.3000805e-01
-5.7676585e-01
-5.4062577e-01
-6.1863812e-01
-8.3637120e-01
-1.1516029e+00
-1.4854012e+00
-1.7646878e+00
-1.9103906e+00
-1.8552658e+00
-1.5636046e+00
-9.8735850e-01
-2.1702104e-02
1.4586324e+00
3.4322545e+00
5.3862106e+00
6.2760607e+00
5.3014340e+00
2.8430765e+00
2.3445319e-01
-1.5430112e+00
-2.4365212e+00
-2.7369388e+00
-2.6340197e+00
-2.3424613e+00
-2.0953607e+00
-1.9811865e+00
-1.9822042e+00
-2.0459621e+00
-2.0968295e+00
-2.0044208e+00
-1.5617798e+00
-5.7221409e-01
9.5493159e-01
2.5534075e+00
3.3687096e+00
2.8703416e+00
1.5212207e+00
4.6238408e-01
5.5920403e-01
1.8161521e+00
3.2808838e+00
3.6742941e+00
2.5077315e+00
3.7872054e-01
-1.6656708e+00
-2.8753831e+00
-3.0529980e+00
-2.3896589e+00
-1.3282516e+00
-4.0069336e-01
5.7974822e-02
2.7808747e-02
-2.7194547e-01
-5.3441892e-01
-5.6498735e-01
-3.9106565e-01
-2.5201942e-01
-3.8294584e-01
-7.8447910e-01
-1.2904641e+00
-1.6942386e+00
-1.7631823e+00
-1.2834739e+00
-1.4905096e-01
1.4656993e+00
2.8436998e+00
3.0078495e+00
1.6461144e+00
-4.5521089e-01
-2.0329575e+00
-2.2652266e+00
-9.8518539e-01
1.5552146e+00
4.5055574e+00
6.3201195e+00
5.7665481e+00
3.1468578e+00
7.6481815e-02
-1.9476822e+00
-2.5315186e+00
-2.2303642e+00
-1.8253660e+00
-1.7194469e+00
-1.9152538e+00
-2.2254354e+00
-2.4384616e+00
-2.4721340e+00
-2.3534934e+00
-2.1038941e+00
-1.6635143e+00
-9.1307429e-01
1.6226203e-01
1.4060581e+00
2.6536265e+00
3.7888574e+00
4.5450978e+00
4.5036489e+00
3.4866012e+00
1.7625956e+00
-1.2016384e-01
-1.6581884e+00
-2.5859646e+00
-2.8458089e+00
-2.5776482e+00
-2.0646355e+00
-1.5722064e+00
-1.2426155e+00
-1.1172362e+00
-1.1255108e+00
-1.0622639e+00
-6.7311351e-01
2.3682037e-01
1.6816029e+00
3.2978633e+00
4.3020291e+00
3.9720465e+00
2.3434116e+00
2.5784839e-01
-1.4066891e+00
-2.3496369e+00
-2.7272609e+00
-2.7758233e+00
-2.6321337e+00
-2.3857241e+00
-2.0932288e+00
-1.6986881e+00
-1.0257720e+00
1.2376990e-01
1.7853715e+00
3.5631639e+00
4.6338031e+00
4.4035200e+00
3.1260783e+00
1.6422669e+00
5.8522740e-01
-3.5782048e-02
-5.8739317e-01
-1.2744519e+00
-1.9516005e+00
-2.4330535e+00
-2.6642111e+00
-2.6327034e+00
-2.3529010e+00
-1.9252356e+00
-1.5144976e+00
-1.1780741e+00
-7.4403194e-01
6.6802302e-02
1.4435877e+00
3.2657085e+00
4.8517314e+00
5.2350357e+00
4.0164023e+00
1.8254361e+00
-2.5916310e-01
-1.6471706e+00
-2.4096780e+00
-2.8035241e+00
-2.9582790e+00
-2.9349233e+00
-2.7577422e+00
-2.3465097e+00
-1.5674731e+00
-3.3996409e-01
1.2425100e+00
2.7683094e+00
3.6168375e+00
3.4538582e+00
2.5641186e+00
1.5632798e+00
8.3619282e-01
3.2441769e-01
-2.4048823e-01
-9.5295927e-01
-1.6308161e+00
-2.0968014e+00
-2.3062292e+00
-2.2284841e+00
-1.8334158e+00
-1.1735897e+00
-4.0866034e-01
2.8285043e-01
8.2071020e-01
1.2358180e+00
1.5658296e+00
1.7001393e+00
1.4217928e+00
6.9729038e-01
-1.8080322e-01
-7.8645166e-01
-8.6518063e-01
-4.6787391e-01
7.5199720e-02
3.3193527e-01
6.8254653e-02
-6.0135528e-01
-1.3074380e+00
-1.6692731e+00
-1.4750728e+00
-6.8185586e-01
5.8867350e-01
1.9300232e+00
2.6386361e+00
2.1586263e+00
6.9454127e-01
-8.4750284e-01
-1.5977578e+00
-1.2110755e+00
1.5552635e-01
1.9327687e+00
3.2272072e+00
3.2542316e+00
2.0211044e+00
3.2667858e-01
-1.0489705e+00
-1.8296316e+00
-2.0702425e+00
-1.9135160e+00
-1.5353327e+00
-1.1686042e+00
-1.0108614e+00
-1.0799769e+00
-1.2376613e+00
-1.3236276e+00
-1.2406587e+00
-9.5901796e-01
-5.1447905e-01
5.5277401e-03
5.0131356e-01
8.9803043e-01
1.1510165e+00
1.2117351e+00
1.0514195e+00
7.1035949e-01
2.4325467e-01
-3.9160172e-01
-1.1624909e+00
-1.6688996e+00
-1.3484574e+00
6.2530712e-02
2.2728508e+00
4.3400166e+00
5.0620578e+00
3.9197298e+00
1.6044729e+00
-5.8594825e-01
-1.7917359e+00
-1.9672658e+00
-1.6144321e+00
-1.2813403e+00
-1.1877954e+00
-1.3177440e+00
-1.5664433e+00
-1.7689403e+00
-1.8182837e+00
-1.7307632e+00
-1.5603438e+00
-1.2551758e+00
-6.3986000e-01
4.0542177e-01
1.6912720e+00
2.6581981e+00
2.7748001e+00
2.0441469e+00
1.0137179e+00
2.6266140e-01
-3.8576429e-02
4.2437100e-02
4.8806833e-01
1.1576387e+00
1.5989110e+00
1.3300916e+00
3.2382858e-01
-9.2113062e-01
-1.8699610e+00
-2.3661586e+00
-2.5267807e+00
-2.4295168e+00
-2.0013536e+00
-1.1852320e+00
-1.1837205e-01
8.7685138e-01
1.5019330e+00
1.7272443e+00
1.7778370e+00
1.8353933e+00
1.8116702e+00
1.5117173e+00
9.3857008e-01
3.0945987e-01
-1.8729840e-01
-5.4878321e-01
-8.4743369e-01
-1.0593115e+00
-1.1208436e+00
-1.0868895e+00
-1.0781347e+00
-1.1138321e+00
-1.1055767e+00
-1.0129863e+00
-9.4687100e-01
-1.0714858e+00
-1.4245712e+00
-1.8770027e+00
-2.1680316e+00
-1.9557156e+00
-9.5619569e-01
9.5743857e-01
3.6556970e+00
6.3843357e+00
7.7223279e+00
6.6211460e+00
3.5034668e+00
8.0576151e-03
-2.3735082e+00
-3.2064929e+00
-2.9095853e+00
-2.1959839e+00
-1.6197046e+00
-1.3987556e+00
-1.4575848e+00
-1.6081102e+00
-1.7532392e+00
-1.8477803e+00
-1.7965042e+00
-1.4289754e+00
-5.6630133e-01
8.4281754e-01
2.6209690e+00
4.2501281e+00
4.9284383e+00
4.0867807e+00
2.0175583e+00
-2.6093107e-01
-1.8716674e+00
-2.5799220e+00
-2.6089465e+00
-2.2650722e+00
-1.7622606e+00
-1.3094726e+00
-1.0741689e+00
-1.0285455e+00
-9.7636406e-01
-6.9125034e-01
-4.8066644e-02
8.8846801e-01
1.7692964e+00
2.0542013e+00
1.5007762e+00
6.0058407e-01
1.6968885e-01
5.3687468e-01
1.4043080e+00
2.0869078e+00
1.8888879e+00
6.7032189e-01
-1.0064839e+00
-2.3530502e+00
-2.8870479e+00
-2.5539707e+00
-1.6356629e+00
-5.9610671e-01
1.9058467e-01
6.2590833e-01
8.8434261e-01
1.2082184e+00
1.6296004e+00
1.9413591e+00
1.8875557e+00
1.3688979e+00
5.2518485e-01
-3.7547863e-01
-1.0785562e+00
-1.3921758e+00
-1.2590566e+00
-8.3718093e-01
-4.2886022e-01
-2.8065848e-01
-4.4521181e-01
-8.3563593e-01
-1.3317656e+00
-1.8128478e+00
-2.1596772e+00
-2.2709857e+00
-2.0672125e+00
-1.4402911e+00
-2.4043625e-01
1.6450230e+00
4.0984053e+00
6.3695975e+00
7.1387644e+00
5.6252553e+00
2.5096364e+00
-6.0824663e-01
-2.5429527e+00
-3.1052855e+00
-2.7861542e+00
-2.2322063e+00
-1.8514054e+00
-1.7731256e+00
-1.9178794e+00
-2.1032206e+00
-2.2136505e+00
-2.2040051e+00
-2.0201574e+00
-1.5449601e+00
-5.9693674e-01
9.7332675e-01
3.1091228e+00
5.3143130e+00
6.5777183e+00
5.9310736e+00
3.4147662e+00
2.5156779e-01
-2.1681130e+00
-3.2471445e+00
-3.1870615e+00
-2.4953026e+00
-1.6182526e+00
-8.6105529e-01
-3.4484171e-01
-1.7689050e-02
1.8835078e-01
2.8564442e-01
2.5709289e-01
1.0950749e-01
-9.9049915e-02
-3.4381149e-01
-6.7623508e-01
-1.0954979e+00
-1.5040946e+00
-1.8130094e+00
-1.9351662e+00
-1.7348547e+00
-1.0980778e+00
2.1848382e-02
1.6121980e+00
3.4791864e+00
5.0510358e+00
5.5363504e+00
4.5145236e+00
2.3437012e+00
-6.0648693e-02
-1.8551072e+00
-2.6981932e+00
-2.6780789e+00
-2.0587150e+00
-1.1784035e+00
-4.0964976e-01
-1.1839404e-02
-4.7917078e-04
-2.0533595e-01
-4.5150891e-01
-6.5984016e-01
-7.9968034e-01
-8.6345156e-01
-8.8128056e-01
-9.0114620e-01
-9.6099872e-01
-1.0572470e+00
-1.1200290e+00
-1.0220888e+00
-6.0666014e-01
2.6863654e-01
1.5779392e+00
2.8920928e+00
3.4691991e+00
2.8703411e+00
1.4197135e+00
-7.6101325e-02
-1.0129980e+00
-1.3625188e+00
-1.4821642e+00
-1.5777955e+00
-1.4339803e+00
-7.4513219e-01
5.9642752e-01
2.0406625e+00
2.4950437e+00
1.5868086e+00
-7.8024135e-02
-1.7197639e+00
-2.8454188e+00
-3.2283980e+00
-2.8016315e+00
-1.6819770e+00
-2.1240151e-01
1.1984388e+00
2.4230015e+00
3.5967997e+00
4.6415100e+00
4.9842281e+00
3.9630361e+00
1.5978570e+00
-1.1555513e+00
-3.1838850e+00
-4.0175129e+00
-3.7588433e+00
-2.7452233e+00
-1.3940498e+00
-1.2237690e-01
7.5609257e-01
1.1053878e+00
9.3347844e-01
3.7722893e-01
-2.7190686e-01
-6.7289098e-01
-6.6102965e-01
-3.3916844e-01
4.5343587e-02
2.8274767e-01
2.9082928e-01
9.6333458e-02
-1.9955605e-01
-4.5456767e-01
-5.1714872e-01
-2.8065369e-01
2.3144748e-01
7.7857619e-01
9.8100434e-01
6.4829585e-01
1.4013327e-03
-5.0084970e-01
-5.3061511e-01
-1.1503698e-01
4.4064139e-01
8.2397326e-01
9.3364474e-01
9.0098788e-01
8.8384526e-01
8.5868129e-01
6.2122558e-01
-2.9858264e-02
-1.0229465e+00
-2.0010828e+00
-2.6199185e+00
-2.7185833e+00
-2.2582183e+00
-1.2657652e+00
1.4101910e-01
1.6926249e+00
2.9681197e+00
3.5565860e+00
3.2573018e+00
2.1903956e+00
7.7366099e-01
-4.8747883e-01
-1.2592477e+00
-1.4599733e+00
-1.2003286e+00
-7.2603934e-01
-3.3541061e-01
-2.2278444e-01
-3.6651323e-01
-6.0302741e-01
-7.5844335e-01
-7.0965227e-01
-4.1340533e-01
6.6133548e-02
5.3389626e-01
7.2471124e-01
4.9161479e-01
-1.5607447e-02
-4.4024784e-01
-5.1108127e-01
-2.1678507e-01
2.2723171e-01
5.6303968e-01
6.4210490e-01
4.5129725e-01
8.1219967e-02
-3.4480911e-01
-7.5389935e-01
-1.1354706e+00
-1.4933850e+00
-1.8154748e+00
-2.0347642e+00
-2.0171479e+00
-1.6109539e+00
-7.2000519e-01
5.8768688e-01
1.9717105e+00
2.9714527e+00
3.4367680e+00
3.6321098e+00
3.7957455e+00
3.7401666e+00
3.0216127e+00
1.5011590e+00
-3.9782075e-01
-2.0310613e+00
-3.0090727e+00
-3.2949690e+00
-3.0373631e+00
-2.4644966e+00
-1.8163909e+00
-1.2461226e+00
-8.0256635e-01
-4.8681154e-01
-2.7534227e-01
-1.2847889e-01
-4.4796936e-03
1.4104198e-01
2.8695847e-01
3.1360755e-01
3.5136818e-01
8.5594173e-01
1.9386915e+00
3.0214309e+00
3.2373899e+00
2.1431964e+00
1.5041050e-01
-1.8693627e+00
-3.2865934e+00
-3.9128082e+00
-3.8227002e+00
-3.1840870e+00
-2.1033335e+00
-5.6362802e-01
1.4413374e+00
3.7004775e+00
5.5841067e+00
6.1930983e+00
5.0663754e+00
2.6503530e+00
-1.0182388e-02
-1.9747365e+00
-2.9070573e+00
-3.0212274e+00
-2.6876352e+00
-2.1826701e+00
-1.7228836e+00
-1.4653429e+00
-1.4472516e+00
-1.6188181e+00
-1.8743907e+00
-2.0311694e+00
-1.8315692e+00
-1.0294038e+00
5.3878682e-01
2.8464579e+00
5.3141715e+00
6.6680003e+00
5.8821013e+00
3.3763373e+00
6.8330252e-01
-1.0061887e+00
-1.5419810e+00
-1.5065929e+00
-1.5581762e+00
-1.8834801e+00
-2.2891336e+00
-2.5529780e+00
-2.5562986e+00
-2.3072691e+00
-1.8887184e+00
-1.3911444e+00
-8.6415717e-01
-2.8809774e-01
4.0227914e-01
1.2836063e+00
2.3717355e+00
3.4466212e+00
3.9801116e+00
3.4388680e+00
1.8004334e+00
-3.2801681e-01
-2.1633735e+00
-3.1853185e+00
-3.2114220e+00
-2.3228919e+00
-8.0968808e-01
8.6288265e-01
2.0736666e+00
2.2570366e+00
1.2942157e+00
-2.9976700e-01
-1.6727165e+00
-2.1847590e+00
-1.6439077e+00
-2.3535515e-01
1.5360262e+00
2.8836642e+00
3.0830689e+00
2.1131268e+00
6.8165858e-01
-4.9369036e-01
-1.1525439e+00
-1.4334396e+00
-1.5741366e+00
-1.6769364e+00
-1.7570274e+00
-1.7917710e+00
-1.6959188e+00
-1.4158746e+00
-1.0072752e+00
-5.3642681e-01
4.8147370e-02
8.5631997e-01
1.9156533e+00
3.0975605e+00
4.0353931e+00
4.1828301e+00
3.2057587e+00
1.3765881e+00
-5.1643683e-01
-1.7573939e+00
-2.1424150e+00
-1.8989739e+00
-1.4294161e+00
-1.0994904e+00
-1.0645808e+00
-1.2083664e+00
-1.3082917e+00
-1.2444946e+00
-1.0073023e+00
-6.2709817e-01
-1.8993958e-01
1.4908507e-01
2.9116047e-01
3.4821958e-01
5.7351585e-01
1.1456389e+00
2.0512053e+00
2.9900312e+00
3.3865629e+00
2.6943365e+00
8.8568039e-01
-1.3304363e+00
-3.0613666e+00
-3.8973431e+00
-3.9097380e+00
-3.4162023e+00
-2.7242500e+00
-1.8179839e+00
-4.5250267e-01
1.4221126e+00
3.3661750e+00
4.5187663e+00
4.2334739e+00
2.7152396e+00
8.1411631e-01
-6.8299494e-01
-1.4304696e+00
-1.4660373e+00
-9.5727225e-01
-1.0199607e-01
7.2578626e-01
1.0525685e+00
6.4348739e-01
-3.4268357e-01
-1.5451537e+00
-2.6366703e+00
-3.3796348e+00
-3.6254640e+00
-3.3324675e+00
-2.5365515e+00
-1.3164192e+00
1.9342734e-01
1.8716132e+00
3.6894564e+00
5.5129693e+00
6.8086965e+00
6.8076798e+00
5.0899333e+00
2.0914184e+00
-1.0240837e+00
-3.2145057e+00
-4.1448847e+00
-4.0095936e+00
-3.2187523e+00
-2.2389051e+00
-1.3993170e+00
-7.5119761e-01
-1.6566318e-01
4.5481339e-01
1.0388345e+00
1.3425631e+00
1.1329077e+00
3.9660944e-01
-6.0251223e-01
-1.4561547e+00
-1.8599130e+00
-1.7284587e+00
-1.1679755e+00
-3.7161191e-01
5.0696413e-01
1.3727654e+00
2.1016230e+00
2.4772577e+00
2.2764487e+00
1.4421020e+00
1.9148858e-01
-1.0226283e+00
-1.7487027e+00
-1.8305189e+00
-1.4694711e+00
-1.0018369e+00
-6.5389040e-01
-4.7579120e-01
-3.1669220e-01
9.7616319e-02
8.8547105e-01
1.7534711e+00
2.1137690e+00
1.6488135e+00
6.9394702e-01
-7.9454452e-02
-2.6350362e-01
3.2017804e-02
3.4220393e-01
2.6078874e-01
-2.4835358e-01
-9.3482442e-01
-1.5041710e+00
-1.7618300e+00
-1.6581503e+00
-1.2232766e+00
-4.9881657e-01
4.0136466e-01
1.2348576e+00
1.6768193e+00
1.4758727e+00
6.6334465e-01
-4.0889482e-01
-1.3265433e+00
-1.9031576e+00
-2.1939948e+00
-2.2625953e+00
-1.9833763e+00
-1.1245542e+00
4.7704110e-01
2.7908618e+00
5.2448963e+00
6.5735162e+00
5.7008128e+00
2.8940095e+00
-3.5758634e-01
-2.6399104e+00
-3.4911054e+00
-3.2087428e+00
-2.3530679e+00
-1.4482780e+00
-8.4764141e-01
-5.9687346e-01
-5.1217435e-01
-4.4653355e-01
-3.4867690e-01
-2.1243804e-01
-4.5220344e-02
1.6871970e-01
4.6675235e-01
8.4044300e-01
1.1803450e+00
1.2748229e+00
9.2537286e-01
1.9190373e-01
-5.6368313e-01
-9.7429050e-01
-9.7050271e-01
-8.0810031e-01
-6.6699027e-01
-3.9309836e-01
7.4736823e-02
4.2098247e-01
2.6391474e-01
-4.4524004e-01
-1.3234430e+00
-1.8443788e+00
-1.6752711e+00
-7.4724310e-01
8.0498825e-01
2.5886568e+00
3.9597271e+00
4.3123816e+00
3.4246292e+00
1.6610385e+00
-2.0077800e-01
-1.4972434e+00
-2.0217649e+00
-1.9541245e+00
-1.5840110e+00
-1.1486321e+00
-8.7952467e-01
-9.4535908e-01
-1.3099344e+00
-1.7821030e+00
-2.1618361e+00
-2.2951185e+00
-2.0460359e+00
-1.2986135e+00
3.5945792e-02
2.0058216e+00
4.3686560e+00
6.2326167e+00
6.4388138e+00
4.6386874e+00
1.7553417e+00
-8.4111113e-01
-2.4389503e+00
-3.1004494e+00
-3.1500264e+00
-2.8894963e+00
-2.5555791e+00
-2.2229753e+00
-1.7735689e+00
-1.0361284e+00
1.0606208e-01
1.6145213e+00
3.1077716e+00
3.8347167e+00
3.1880996e+00
1.3822002e+00
-6.7760095e-01
-2.1721452e+00
-2.7734803e+00
-2.5708333e+00
-1.8630282e+00
-1.0293849e+00
-4.5879886e-01
-3.2846436e-01
-4.8080389e-01
-5.8696585e-01
-3.5414073e-01
3.1451810e-01
1.1869033e+00
1.7426779e+00
1.4950705e+00
4.5600485e-01
-7.1461427e-01
-1.2105752e+00
-6.1527697e-01
1.0502801e+00
3.2857760e+00
5.0052715e+00
5.0694070e+00
3.2491501e+00
5.0706071e-01
-1.8401832e+00
-3.1376747e+00
-3.4510058e+00
-3.0892726e+00
-2.3712227e+00
-1.5871623e+00
-9.2443356e-01
-4.4658243e-01
-1.7781697e-01
-9.7927219e-02
-1.1073622e-01
-1.0429071e-01
-1.8987096e-02
1.2351375e-01
2.1655322e-01
1.5159603e-01
-4.4312443e-02
-1.6981299e-01
-4.0863547e-03
4.5277654e-01
8.7494531e-01
8.3550503e-01
2.3736054e-01
-5.2409283e-01
-8.8993023e-01
-5.4526436e-01
4.2270442e-01
1.5252937e+00
2.0925023e+00
1.7488748e+00
7.7505568e-01
-1.9528056e-01
-7.8885501e-01
-1.0528620e+00
-1.2561190e+00
-1.5532196e+00
-1.8000638e+00
-1.7635101e+00
-1.3017049e+00
-3.9819871e-01
7.3478622e-01
1.7029641e+00
2.2233809e+00
2.2660285e+00
1.8888255e+00
1.1329152e+00
1.0274876e-01
-9.2200013e-01
-1.5647993e+00
-1.6053628e+00
-1.0528423e+00
-1.7993756e-01
5.3983851e-01
7.8676028e-01
5.9617253e-01
2.4809628e-01
1.3542535e-02
-4.2353113e-03
1.3037741e-01
2.2692220e-01
6.4222596e-02
-4.9316754e-01
-1.3551729e+00
-2.1884323e+00
-2.6495492e+00
-2.5893758e+00
-2.0511600e+00
-1.1593176e+00
3.1091456e-03
1.4295726e+00
3.0940231e+00
4.6387854e+00
5.2493616e+00
4.2872825e+00
2.0712702e+00
-2.4690961e-01
-1.6329166e+00
-1.8156860e+00
-1.2139645e+00
-5.3769081e-01
-2.9785896e-01
-5.5158233e-01
-9.9489172e-01
-1.2810924e+00
-1.2705543e+00
-1.0015314e+00
-6.2322018e-01
-3.2242692e-01
-1.7159365e-01
-1.2034676e-01
-7.4254468e-02
7.0860710e-02
3.4125838e-01
6.5257496e-01
8.7419345e-01
8.7683851e-01
5.8089882e-01
5.3467543e-03
-7.3141098e-01
-1.4336710e+00
-1.8957297e+00
-2.0167257e+00
-1.8301141e+00
-1.3924081e+00
-6.4835199e-01
5.4930768e-01
2.2654785e+00
4.1472553e+00
5.2513421e+00
4.7115501e+00
2.6875186e+00
2.8031719e-01
-1.4809106e+00
-2.2979570e+00
-2.4552969e+00
-2.3303801e+00
-2.1091843e+00
-1.8762846e+00
-1.6327233e+00
-1.2725725e+00
-7.4922074e-01
-1.9407292e-01
1.7285585e-01
2.7093879e-01
2.8229055e-01
5.2465373e-01
1.2096430e+00
2.1745427e+00
2.7956628e+00
2.5218047e+00
1.5334207e+00
5.0562900e-01
-1.4302113e-01
-4.6734961e-01
-7.2173880e-01
-1.0793144e+00
-1.5407237e+00
-2.0142340e+00
-2.3715175e+00
-2.4890506e+00
-2.3083901e+00
-1.8312501e+00
-1.0796191e+00
-7.4764611e-02
1.1469902e+00
2.4809990e+00
3.6812099e+00
4.3613845e+00
4.1768194e+00
3.0715851e+00
1.3624853e+00
-3.8304737e-01
-1.6392574e+00
-2.2075644e+00
-2.2122516e+00
-1.9021488e+00
-1.5258983e+00
-1.2778716e+00
-1.2088797e+00
-1.2104977e+00
-1.1552150e+00
-1.0003037e+00
-7.7392301e-01
-5.1716967e-01
-2.6053293e-01
-7.4869470e-02
8.3977630e-03
1.5615569e-01
6.2093782e-01
1.4932839e+00
2.5971313e+00
3.4509596e+00
3.3896952e+00
2.0860829e+00
2.5577371e-02
-1.8267803e+00
-2.7811284e+00
-2.6951455e+00
-1.8969335e+00
-8.8826356e-01
-3.3630595e-02
3.7916670e-01
2.3820557e-01
-1.8545053e-01
-4.3969007e-01
-1.9894111e-01
5.8934549e-01
1.6351812e+00
2.3589166e+00
2.2050067e+00
1.0977723e+00
-4.1618920e-01
-1.6030840e+00
-2.0513640e+00
-1.7355513e+00
-8.8566776e-01
4.2185679e-02
5.0283923e-01
2.7200909e-01
-3.6114441e-01
-8.5593581e-01
-7.3586083e-01
1.8454132e-01
1.5691912e+00
2.5548227e+00
2.4096811e+00
1.3048763e+00
8.6223238e-02
-5.9179390e-01
-6.4221342e-01
-4.4110842e-01
-4.6805025e-01
-8.5104934e-01
-1.3810667e+00
-1.8213491e+00
-2.0567444e+00
-2.0938178e+00
-1.9672456e+00
-1.6444395e+00
-1.0103228e+00
7.6050234e-02
1.6680117e+00
3.5366429e+00
5.0711965e+00
5.5412012e+00
4.5786422e+00
2.4919170e+00
9.9661369e-02
-1.7940632e+00
-2.8030524e+00
-2.9764862e+00
-2.5526678e+00
-1.7830090e+00
-9.3668925e-01
-3.2355901e-01
-1.7432184e-01
-4.5105057e-01
-8.7640319e-01
-1.1559532e+00
-1.1057160e+00
-6.7439830e-01
2.9044392e-02
7.4275728e-01
1.0908558e+00
7.6425869e-01
-1.6004640e-01
-1.1662121e+00
-1.6955292e+00
-1.5268184e+00
-7.0920179e-01
6.3520127e-01
2.2642765e+00
3.6501376e+00
4.1297457e+00
3.3888841e+00
1.7245935e+00
-1.4451421e-01
-1.5320215e+00
-2.1340258e+00
-2.0047149e+00
-1.3768572e+00
-6.0204644e-01
-8.2993491e-02
-2.1036334e-02
-2.6737227e-01
-5.2576856e-01
-6.0085557e-01
-4.5818523e-01
-1.8801922e-01
8.6674877e-03
-8.9241299e-02
-5.5175022e-01
-1.2380386e+00
-1.8799482e+00
-2.2321396e+00
-2.1619222e+00
-1.6421798e+00
-6.8805714e-01
7.0408442e-01
2.5141895e+00
4.5239949e+00
6.0982254e+00
6.3250651e+00
4.7510354e+00
1.9658846e+00
-8.3710112e-01
-2.7842397e+00
-3.6121069e+00
-3.4596013e+00
-2.7007068e+00
-1.7871450e+00
-1.0565793e+00
-6.0898689e-01
-3.4916922e-01
-1.3622034e-01
8.1655289e-02
2.5867589e-01
3.4691055e-01
3.5976422e-01
3.3383193e-01
2.8300948e-01
2.3503280e-01
2.0291892e-01
1.5012395e-01
5.2480074e-02
-6.5236760e-02
-1.9091618e-01
-4.0618945e-01
-7.9563878e-01
-1.2880730e+00
-1.6985476e+00
-1.8665831e+00
-1.7126719e+00
-1.2012112e+00
-3.0354966e-01
9.5877611e-01
2.4251980e+00
3.7143054e+00
4.3176429e+00
3.9514575e+00
2.7637525e+00
1.1814358e+00
-3.1222822e-01
-1.3891426e+00
-1.9802241e+00
-2.1520801e+00
-1.9658894e+00
-1.4941147e+00
-8.7873009e-01
-3.0067437e-01
9.3036297e-02
2.3304301e-01
1.2922844e-01
-1.3489048e-01
-4.1423650e-01
-5.7707792e-01
-5.7710047e-01
-4.3954114e-01
-2.2780126e-01
-1.7149232e-03
1.9948341e-01
3.3435733e-01
3.8575387e-01
3.9554164e-01
4.1629732e-01
4.1279861e-01
2.6127503e-01
-1.0252520e-01
-5.5106897e-01
-8.2151404e-01
-7.0920296e-01
-1.9341702e-01
5.4042616e-01
1.1652872e+00
1.4103361e+00
1.2060400e+00
6.8882665e-01
1.5013335e-01
-1.5978003e-01
-1.9731045e-01
-1.1153955e-01
-1.2855251e-01
-3.7741818e-01
-8.0644027e-01
-1.2494278e+00
-1.5477627e+00
-1.6153753e+00
-1.4429384e+00
-1.0786899e+00
-5.8795482e-01
2.0851922e-02
7.9338221e-01
1.7071629e+00
2.5902162e+00
3.1348710e+00
3.0099704e+00
2.1344835e+00
8.7018543e-01
-2.4488312e-01
-9.1936273e-01
-1.2051453e+00
-1.2976666e+00
-1.3110497e+00
-1.2628661e+00
-1.2020461e+00
-1.2191272e+00
-1.3303678e+00
-1.4659312e+00
-1.5661394e+00
-1.5926908e+00
-1.4718850e+00
-1.1003536e+00
-3.9221499e-01
7.1409957e-01
2.2318947e+00
3.9649463e+00
5.2887125e+00
5.3171143e+00
3.6213354e+00
7.8050777e-01
-1.9954434e+00
-3.7852488e+00
-4.3205784e+00
-3.7333353e+00
-2.3620233e+00
-7.1506424e-01
6.3270717e-01
1.3255485e+00
1.3965569e+00
1.0789730e+00
5.7428313e-01
-1.8376735e-02
-6.5725398e-01
-1.2537314e+00
-1.6289468e+00
-1.5850020e+00
-1.0015572e+00
1.2883861e-01
1.6659091e+00
3.1942279e+00
3.9653220e+00
3.3509631e+00
1.5816729e+00
-3.4632950e-01
-1.5871425e+00
-1.9329496e+00
-1.6514136e+00
-1.1808140e+00
-8.5353198e-01
-7.7780987e-01
-8.2176767e-01
-7.2092466e-01
-2.8856242e-01
4.8198958e-01
1.4139769e+00
2.0364279e+00
1.7906362e+00
7.2802455e-01
-4.9950172e-01
-1.3243750e+00
-1.5666860e+00
-1.3202728e+00
-8.0379939e-01
-2.7095631e-01
1.2331251e-01
3.6739409e-01
4.9441981e-01
5.1358734e-01
4.0332118e-01
1.3979425e-01
-2.6073155e-01
-7.3149254e-01
-1.1743216e+00
-1.5042553e+00
-1.6738816e+00
-1.6300499e+00
-1.2928261e+00
-5.9506432e-01
4.9312397e-01
1.8683579e+00
3.1449200e+00
3.7725403e+00
3.4790712e+00
2.4929969e+00
1.2629490e+00
1.3757700e-01
-7.0806664e-01
-1.2135179e+00
-1.4190296e+00
-1.4853284e+00
-1.5724544e+00
-1.6756457e+00
-1.6554705e+00
-1.4195455e+00
-1.0317966e+00
-6.3658005e-01
-2.9841621e-01
3.4005260e-02
4.5242922e-01
9.6127515e-01
1.4131245e+00
1.6511326e+00
1.6463030e+00
1.4615220e+00
1.1539221e+00
7.0580774e-01
5.8473471e-02
-7.3605594e-01
-1.4604945e+00
-1.8789229e+00
-1.8509758e+00
-1.3663324e+00
-6.2135440e-01
4.0647847e-02
3.6680739e-01
3.4875546e-01
1.4409702e-01
-6.3816913e-02
-1.1789220e-01
6.5880111e-02
4.4188177e-01
8.0598299e-01
9.0579849e-01
6.5452423e-01
1.9209954e-01
-2.3818312e-01
-4.3423386e-01
-3.2417669e-01
1.3935809e-02
3.8557269e-01
5.7613214e-01
5.1442283e-01
3.2665638e-01
2.0319597e-01
2.6013110e-01
4.8212125e-01
6.9665950e-01
6.4777144e-01
1.9097532e-01
-5.8506785e-01
-1.4321730e+00
-2.1253133e+00
-2.5605069e+00
-2.7148758e+00
-2.6078661e+00
-2.2863013e+00
-1.7641429e+00
-9.5858028e-01
3.0178865e-01
2.1758827e+00
4.5663950e+00
6.7233856e+00
7.3397652e+00
5.6293865e+00
2.2517034e+00
-1.1789763e+00
-3.4255367e+00
-4.2438888e+00
-4.0464157e+00
-3.3529883e+00
-2.4368750e+00
-1.3794337e+00
-2.6287029e-01
6.5359806e-01
9.1913165e-01
3.2908000e-01
-7.2979390e-01
-1.5729150e+00
-1.7340389e+00
-1.1013678e+00
2.3343322e-01
2.0480226e+00
3.8591110e+00
4.8979224e+00
4.5689371e+00
2.9347678e+00
6.5182004e-01
-1.4850481e+00
-2.9455230e+00
-3.5419926e+00
-3.2815717e+00
-2.3327638e+00
-1.0744404e+00
4.0449384e-02
7.8072855e-01
1.2046574e+00
1.4147762e+00
1.4299411e+00
1.1654746e+00
5.1575901e-01
-3.6018678e-01
-1.0327301e+00
-1.2099147e+00
-9.5501000e-01
-5.4822139e-01
-2.2663366e-01
-1.8509917e-02
1.4609646e-01
2.8665177e-01
3.4860289e-01
2.5323949e-01
-2.0909069e-02
-3.8975388e-01
-6.9052126e-01
-7.7002218e-01
-5.4810985e-01
-3.2049968e-02
6.7826024e-01
1.3676659e+00
1.7555349e+00
1.6389510e+00
1.0377185e+00
1.6859087e-01
-7.6207029e-01
-1.6235490e+00
-2.2562678e+00
-2.5111999e+00
-2.3784162e+00
-1.9470715e+00
-1.2755362e+00
-3.2133133e-01
9.9492861e-01
2.6050264e+00
4.0950204e+00
4.7022019e+00
3.8372147e+00
1.7815222e+00
-4.3590146e-01
-1.9085049e+00
-2.3911012e+00
-2.1799931e+00
-1.7127748e+00
-1.2862846e+00
-1.0413426e+00
-9.7708577e-01
-9.9533419e-01
-1.0281737e+00
-1.0633982e+00
-1.0799311e+00
-9.8532600e-01
-5.8492698e-01
3.5270960e-01
1.9356092e+00
3.8977289e+00
5.3786891e+00
5.3511713e+00
3.5723431e+00
9.1619009e-01
-1.3807052e+00
-2.6544425e+00
-2.9139519e+00
-2.4701602e+00
-1.7472489e+00
-1.1752949e+00
-9.7514766e-01
-1.0906315e+00
-1.3657791e+00
-1.6562437e+00
-1.8308449e+00
-1.7823648e+00
-1.4445267e+00
-7.8844765e-01
1.8770045e-01
1.4565500e+00
2.8382210e+00
3.8624855e+00
3.9771674e+00
3.0136106e+00
1.3826119e+00
-2.2134468e-01
-1.2846346e+00
-1.6255611e+00
-1.2769449e+00
-4.8522911e-01
2.4949484e-01
4.0201725e-01
-1.7756850e-01
-1.1778187e+00
-2.0953405e+00
-2.5006531e+00
-2.1862773e+00
-1.1803050e+00
3.4637519e-01
2.1053406e+00
3.5771360e+00
4.1092219e+00
3.3969828e+00
1.8096438e+00
1.0446572e-01
-1.1558158e+00
-1.8008095e+00
-1.8631174e+00
-1.5103447e+00
-1.0546079e+00
-7.6888398e-01
-7.2047223e-01
-8.2712867e-01
-9.7998309e-01
-1.0926520e+00
-1.0927910e+00
-9.1208055e-01
-4.8687847e-01
2.3684058e-01
1.2583779e+00
2.3832941e+00
3.1319167e+00
3.0491610e+00
2.2005369e+00
1.0933325e+00
1.5777165e-01
-5.4536422e-01
-1.1614146e+00
-1.6917779e+00
-1.9965487e+00
-1.9871428e+00
-1.6699096e+00
-1.1426205e+00
-6.1225444e-01
-3.7068250e-01
-5.5533458e-01
-9.6588790e-01
-1.2930825e+00
-1.3773104e+00
-1.1986516e+00
-7.3566352e-01
1.4053470e-01
1.5701907e+00
3.3951942e+00
4.9590787e+00
5.3836391e+00
4.2155038e+00
1.8714257e+00
-6.5138550e-01
-2.4938434e+00
-3.3319421e+00
-3.2624467e+00
-2.5438091e+00
-1.4881807e+00
-3.9656744e-01
5.5870419e-01
1.3587049e+00
1.9336155e+00
2.0025217e+00
1.3821969e+00
3.6189586e-01
-5.6918221e-01
-1.1588362e+00
-1.3820821e+00
-1.3212085e+00
-1.1477780e+00
-1.0383267e+00
-1.0866603e+00
-1.3065017e+00
-1.6173108e+00
-1.8456258e+00
-1.8112563e+00
-1.3998219e+00
-5.3405887e-01
8.1132145e-01
2.4459796e+00
3.8812647e+00
4.6250505e+00
4.5758760e+00
3.9471886e+00
2.8314922e+00
1.1355191e+00
-8.8278028e-01
-2.4818657e+00
-3.1217939e+00
-2.8668228e+00
-2.1175117e+00
-1.2775198e+00
-6.2443698e-01
-2.6569710e-01
-1.2173278e-01
-7.1103951e-02
-9.0158494e-02
-2.0053396e-01
-3.9069309e-01
-5.6245244e-01
-5.5976890e-01
-3.1013027e-01
8.4871479e-02
4.0580828e-01
4.2929596e-01
4.5558268e-02
-5.9528430e-01
-1.1401588e+00
-1.3162362e+00
-1.0341763e+00
-3.0267783e-01
8.1838313e-01
2.1707518e+00
3.3523695e+00
3.7802440e+00
3.0708142e+00
1.3777224e+00
-6.3599721e-01
-2.2238582e+00
-2.9591660e+00
-2.7939485e+00
-1.9244253e+00
-6.6942451e-01
6.1351780e-01
1.5653361e+00
1.8939621e+00
1.5287698e+00
6.6641067e-01
-3.5342020e-01
-1.2147088e+00
-1.7370510e+00
-1.9067628e+00
-1.8267531e+00
-1.6288330e+00
-1.4057431e+00
-1.1848037e+00
-9.2142185e-01
-4.4470247e-01
5.0600494e-01
2.0629279e+00
3.9439498e+00
5.2925667e+00
5.0871977e+00
3.1313353e+00
4.0705887e-01
-1.8534298e+00
-3.0486801e+00
-3.1823256e+00
-2.5948277e+00
-1.8014836e+00
-1.1846502e+00
-7.8977814e-01
-5.2264464e-01
-3.5223099e-01
-2.6060052e-01
-1.4229070e-01
1.5525382e-01
7.0492811e-01
1.5078718e+00
2.3125479e+00
2.5473683e+00
1.9238240e+00
7.7207438e-01
-3.0800046e-01
-9.2655843e-01
-1.0550032e+00
-8.8818267e-01
-6.7218311e-01
-5.6403354e-01
-6.4004886e-01
-8.9985606e-01
-1.2271965e+00
-1.4478427e+00
-1.4387890e+00
-1.1815056e+00
-7.3869617e-01
-2.1728416e-01
2.9864452e-01
8.6589766e-01
1.6281896e+00
2.5611044e+00
3.3574661e+00
3.5201879e+00
2.6821982e+00
9.7490008e-01
-1.0264923e+00
-2.6586891e+00
-3.4719408e+00
-3.3687189e+00
-2.5564190e+00
-1.4096561e+00
-2.7193438e-01
7.1192373e-01
1.5255362e+00
2.0626987e+00
2.0309958e+00
1.2097933e+00
-1.8406654e-01
-1.5409499e+00
-2.2365466e+00
-1.9249883e+00
-5.8382700e-01
1.4365517e+00
3.2994063e+00
3.9876023e+00
3.0815873e+00
1.1761838e+00
-6.7480907e-01
-1.8084722e+00
-2.1345403e+00
-1.8715021e+00
-1.3151491e+00
-6.9823262e-01
-2.1880627e-01
1.0216274e-03
1.5155050e-02
-6.5446585e-02
-1.5906215e-01
-1.8833974e-01
-9.9698275e-02
1.0487915e-01
3.1328349e-01
3.4784447e-01
1.5028045e-01
-1.7718714e-01
-4.8760373e-01
-6.6569703e-01
-6.8471444e-01
-6.6261819e-01
-7.9427958e-01
-1.1212563e+00
-1.3942892e+00
-1.2571857e+00
-5.0277670e-01
8.5125921e-01
2.4794077e+00
3.6531982e+00
3.5865307e+00
2.1964120e+00
3.3430477e-01
-9.7613117e-01
-1.2987132e+00
-7.7414794e-01
1.7254196e-01
9.8783774e-01
1.1420755e+00
4.5749727e-01
-7.4353988e-01
-1.9518981e+00
-2.7831869e+00
-3.0137070e+00
-2.5532989e+00
-1.4668500e+00
6.5725644e-02
1.7860702e+00
3.2180637e+00
3.6693356e+00
2.7571336e+00
9.5609962e-01
-7.0753530e-01
-1.5249265e+00
-1.4321107e+00
-7.5830960e-01
6.7544991e-02
6.5641398e-01
6.9949695e-01
1.6024674e-01
-6.6126394e-01
-1.4050656e+00
-1.8703370e+00
-1.9974786e+00
-1.7751972e+00
-1.2597702e+00
-6.5060307e-01
-1.3259441e-01
3.4905670e-01
9.7805489e-01
1.8499278e+00
2.8966558e+00
3.8134869e+00
4.0317470e+00
3.0602859e+00
1.0870646e+00
-1.0466400e+00
-2.5933255e+00
-3.3127250e+00
-3.3532085e+00
-2.9559370e+00
-2.1706373e+00
-9.7353272e-01
4.6349416e-01
1.7087053e+00
2.1855700e+00
1.6111180e+00
3.7146842e-01
-7.9363187e-01
-1.3650215e+00
-1.2185007e+00
-6.2458411e-01
-6.4928827e-02
2.3561214e-01
4.9158388e-01
1.1006104e+00
2.1492568e+00
3.0951296e+00
3.1609019e+00
2.0745521e+00
3.4916821e-01
-1.1940255e+00
-2.0542967e+00
-2.1587121e+00
-1.6788110e+00
-9.3527497e-01
-3.0448309e-01
-1.0335934e-02
-3.1362860e-02
-2.2580959e-01
-4.5527263e-01
-6.4636953e-01
-8.1633264e-01
-1.0035227e+00
-1.1982567e+00
-1.3270623e+00
-1.2757284e+00
-9.5550892e-01
-2.8594206e-01
8.1743436e-01
2.2876486e+00
3.6699245e+00
4.1849408e+00
3.2922809e+00
1.2867353e+00
-8.6844844e-01
-2.3682007e+00
-2.9559558e+00
-2.7464629e+00
-2.0775048e+00
-1.3690776e+00
-8.6002178e-01
-5.2235076e-01
-2.8998172e-01
-2.1897238e-01
-3.7934817e-01
-6.5995991e-01
-7.1310516e-01
-1.5566068e-01
1.1773075e+00
3.0496654e+00
4.6972651e+00
5.1637561e+00
4.0724434e+00
1.9989312e+00
-1.0841516e-01
-1.7016346e+00
-2.6114067e+00
-2.7762569e+00
-2.3120927e+00
-1.5393546e+00
-7.8490251e-01
-2.2623854e-01
5.7224047e-02
-2.4789050e-03
-3.8500480e-01
-8.6441054e-01
-1.1028394e+00
-8.8379764e-01
-1.9057347e-01
8.1016235e-01
1.7019573e+00
1.9441373e+00
1.3613952e+00
3.1852435e-01
-7.1151443e-01
-1.4420091e+00
-1.7447308e+00
-1.6144064e+00
-1.1435056e+00
-4.7444822e-01
2.7706658e-01
1.0694121e+00
1.8793022e+00
2.5633401e+00
2.7501926e+00
2.0777932e+00
6.4665131e-01
-9.8224185e-01
-2.1806154e+00
-2.5610006e+00
-2.1268112e+00
-1.2368948e+00
-3.7909013e-01
1.6330908e-01
4.0545145e-01
4.3266822e-01
2.7461032e-01
-2.7916777e-02
-3.5783233e-01
-5.9880781e-01
-7.3815371e-01
-8.3127352e-01
-9.1324442e-01
-9.4786244e-01
-8.0195601e-01
-3.1274331e-01
5.6053701e-01
1.7126732e+00
2.9611275e+00
3.9901792e+00
4.2876745e+00
3.4167979e+00
1.4730131e+00
-8.3726255e-01
-2.7036118e+00
-3.7305425e+00
-3.9459087e+00
-3.6336996e+00
-3.0348679e+00
-2.1200378e+00
-8.5007454e-01
5.4332149e-01
1.6017642e+00
2.0472891e+00
2.1080208e+00
2.2473781e+00
2.6207326e+00
2.8426859e+00
2.3897034e+00
1.2734415e+00
3.4813994e-02
-9.1144722e-01
-1.5247158e+00
-1.8762544e+00
-1.9939516e+00
-1.9265718e+00
-1.7543931e+00
-1.5234753e+00
-1.2135736e+00
-7.6205252e-01
-1.5127203e-01
4.7877968e-01
8.7043298e-01
9.4903864e-01
9.7735044e-01
1.2845661e+00
1.8409838e+00
2.1561358e+00
1.7353810e+00
6.6719688e-01
-4.8082230e-01
-1.3003914e+00
-1.7485844e+00
-1.9154767e+00
-1.8902501e+00
-1.7660432e+00
-1.6121517e+00
-1.4146125e+00
-1.0591689e+00
-3.9633524e-01
6.5509399e-01
1.9875571e+00
3.1918095e+00
3.7234915e+00
3.3436876e+00
2.2898512e+00
9.7319273e-01
-3.1170301e-01
-1.3672122e+00
-2.0003563e+00
-2.1154439e+00
-1.8549625e+00
-1.4951737e+00
-1.2234770e+00
-1.0603003e+00
-9.1481338e-01
-6.7387460e-01
-2.8077466e-01
2.7074410e-01
9.6225921e-01
1.6649200e+00
2.0519648e+00
1.8099168e+00
1.0782409e+00
3.7299592e-01
1.9689872e-02
-3.9347004e-02
-1.8309049e-02
-8.6322000e-02
-2.8810102e-01
-5.6889298e-01
-8.3135873e-01
-9.7414690e-01
-9.6027288e-01
-8.2976854e-01
-6.2173249e-01
-3.2812998e-01
7.3401604e-02
5.6279640e-01
1.0321516e+00
1.2835599e+00
1.1307114e+00
5.3761822e-01
-3.5448595e-01
-1.3161459e+00
-2.1066874e+00
-2.5541175e+00
-2.6317170e+00
-2.4083061e+00
-1.8934263e+00
-9.6503890e-01
5.1683613e-01
2.4874708e+00
4.3630488e+00
5.1196714e+00
4.1279589e+00
1.8749589e+00
-4.0853801e-01
-1.7344730e+00
-1.7626834e+00
-6.9746440e-01
7.7526061e-01
1.7293970e+00
1.5872721e+00
5.8435038e-01
-5.3904274e-01
-1.2768721e+00
-1.5755380e+00
-1.6093337e+00
-1.5708901e+00
-1.5458309e+00
-1.5318310e+00
-1.4743946e+00
-1.2729935e+00
-8.2916274e-01
-7.0188290e-02
1.0140391e+00
2.2553939e+00
3.1867107e+00
3.2186924e+00
2.2344917e+00
8.2008900e-01
-2.9338624e-01
-7.6998251e-01
-7.7685188e-01
-8.1469021e-01
-1.1870009e+00
-1.6560518e+00
-1.8341632e+00
-1.6507330e+00
-1.3692675e+00
-1.2798091e+00
-1.3717980e+00
-1.3527195e+00
-9.2822192e-01
6.2156546e-02
1.6391252e+00
3.5704131e+00
5.1709228e+00
5.4952213e+00
4.0981520e+00
1.5533814e+00
-9.8899617e-01
-2.7424102e+00
-3.5745638e+00
-3.6639760e+00
-3.2694777e+00
-2.7146354e+00
-2.2608093e+00
-1.8782171e+00
-1.2820863e+00
-1.6894361e-01
1.5481012e+00
3.4637395e+00
4.6546804e+00
4.3879527e+00
2.9722913e+00
1.4449282e+00
4.6233849e-01
-5.9180533e-02
-5.3275179e-01
-1.2005603e+00
-1.9227126e+00
-2.4613269e+00
-2.7207889e+00
-2.7031366e+00
-2.4579493e+00
-2.0564954e+00
-1.5542587e+00
-9.2332730e-01
-3.0884163e-02
1.2197173e+00
2.6400660e+00
3.7071907e+00
3.8998154e+00
3.1248737e+00
1.8284925e+00
6.7920776e-01
7.8648816e-02
-1.1263810e-01
-3.9601583e-01
-1.0816619e+00
-1.9821381e+00
-2.7227876e+00
-3.0657876e+00
-2.8955342e+00
-2.1826034e+00
-1.0403416e+00
2.3669653e-01
1.2561849e+00
1.7954886e+00
1.9927319e+00
2.1482013e+00
2.3629972e+00
2.3874984e+00
1.8532824e+00
7.0529128e-01
-6.5160441e-01
-1.6951890e+00
-2.2152958e+00
-2.3407261e+00
-2.2577866e+00
-2.0093490e+00
-1.5674418e+00
-9.6093204e-01
-2.9357640e-01
3.4224578e-01
1.0190258e+00
1.9314473e+00
3.0661665e+00
3.9131552e+00
3.7958841e+00
2.6125954e+00
9.5644988e-01
-5.1734771e-01
-1.5724483e+00
-2.2991174e+00
-2.8072901e+00
-3.1019829e+00
-3.1861732e+00
-3.0934716e+00
-2.8123204e+00
-2.2714324e+00
-1.3764090e+00
-5.8086267e-02
1.6155978e+00
3.3394163e+00
4.6903473e+00
5.3237449e+00
5.0224121e+00
3.7286105e+00
1.7100569e+00
-3.6551743e-01
-1.7573003e+00
-2.1680431e+00
-1.9034251e+00
-1.5428155e+00
-1.4322419e+00
-1.5076131e+00
-1.5795026e+00
-1.5275482e+00
-1.2864866e+00
-8.6888582e-01
-3.6609195e-01
1.1044119e-01
4.7055098e-01
6.5413520e-01
6.5022847e-01
5.2851633e-01
4.5091569e-01
5.6499466e-01
7.8578637e-01
7.9987331e-01
4.8116787e-01
4.1799650e-02
-3.3219296e-01
-6.1961322e-01
-8.4980571e-01
-1.0669487e+00
-1.2814602e+00
-1.4402614e+00
-1.4566296e+00
-1.2348836e+00
-7.5101378e-01
-1.4605977e-01
3.8315355e-01
8.4007593e-01
1.4886679e+00
2.5349138e+00
3.7008674e+00
4.2766531e+00
3.6972980e+00
2.0541416e+00
6.4839397e-02
-1.5420603e+00
-2.5250343e+00
-2.9875370e+00
-3.0813147e+00
-2.9108898e+00
-2.5446375e+00
-2.0134409e+00
-1.2926461e+00
-3.5129888e-01
8.0250797e-01
2.0500953e+00
3.0863601e+00
3.4806768e+00
2.9209409e+00
1.5542869e+00
-5.9451775e-03
-1.1464251e+00
-1.6529090e+00
-1.6793880e+00
-1.5009836e+00
-1.3401186e+00
-1.3129250e+00
-1.4118067e+00
-1.5315549e+00
-1.5319453e+00
-1.2790866e+00
-6.9734473e-01
1.7215832e-01
1.1692361e+00
2.0778128e+00
2.7726983e+00
3.2362539e+00
3.3655878e+00
2.9905967e+00
2.0462065e+00
6.5121187e-01
-8.8053207e-01
-2.1410235e+00
-2.8217192e+00
-2.8616700e+00
-2.4427977e+00
-1.8741990e+00
-1.4128057e+00
-1.1110291e+00
-8.1249318e-01
-3.0590672e-01
4.8185550e-01
1.3502105e+00
1.9533567e+00
2.1963336e+00
2.3337348e+00
2.5883653e+00
2.7506758e+00
2.2937233e+00
1.0180809e+00
-5.7908224e-01
-1.7922019e+00
-2.3291074e+00
-2.3148507e+00
-2.0047552e+00
-1.6101109e+00
-1.2904193e+00
-1.1418632e+00
-1.1279713e+00
-1.1366268e+00
-1.1126633e+00
-1.0401101e+00
-8.2490511e-01
-3.0657842e-01
5.7109461e-01
1.6633355e+00
2.7413888e+00
3.6240345e+00
4.1320949e+00
3.9612987e+00
2.8296094e+00
8.9800779e-01
-1.1742455e+00
-2.6797456e+00
-3.2530243e+00
-2.9481782e+00
-2.1002057e+00
-1.1264218e+00
-3.5608341e-01
7.9660272e-02
2.5350509e-01
3.5647930e-01
5.3420623e-01
7.5412028e-01
8.2945719e-01
5.7826608e-01
2.4553820e-02
-5.8017115e-01
-9.7909613e-01
-1.0573781e+00
-8.2853126e-01
-4.1887667e-01
-9.5777675e-03
2.7530486e-01
4.1673480e-01
4.3411265e-01
3.0446107e-01
-1.9959653e-02
-5.3359144e-01
-1.1235326e+00
-1.5879626e+00
-1.7315404e+00
-1.5506508e+00
-1.1261777e+00
-2.7274568e-01
1.2770250e+00
3.3800238e+00
5.2217154e+00
5.6514816e+00
4.1083627e+00
1.1942149e+00
-1.7934841e+00
-3.8760700e+00
-4.7712271e+00
-4.5986989e+00
-3.6844390e+00
-2.4634545e+00
-1.2775728e+00
-1.8534598e-01
1.0210753e+00
2.5466320e+00
4.2102202e+00
5.3765921e+00
5.3906721e+00
4.0364027e+00
1.7176037e+00
-7.6678801e-01
-2.6872466e+00
-3.6583115e+00
-3.6755663e+00
-3.0180820e+00
-2.0932662e+00
-1.2818055e+00
-7.7495222e-01
-5.3407985e-01
-4.1030510e-01
-2.1763368e-01
2.1249438e-01
9.1833005e-01
1.7703029e+00
2.4729747e+00
2.6365232e+00
2.0417517e+00
8.9065725e-01
-2.8341580e-01
-1.0334870e+00
-1.2305223e+00
-9.7394138e-01
-4.9873844e-01
-7.7449800e-02
1.2369378e-01
7.3430357e-02
-1.9413054e-01
-6.1980341e-01
-1.1571214e+00
-1.7554289e+00
-2.2975894e+00
-2.6057625e+00
-2.5224883e+00
-1.9974847e+00
-1.0529186e+00
3.1143326e-01
2.0972292e+00
4.0963291e+00
5.6374949e+00
5.8068771e+00
4.2741015e+00
1.7519760e+00
-6.2795821e-01
-2.1316248e+00
-2.5566079e+00
-2.0443136e+00
-9.8548106e-01
9.4868460e-03
3.4126123e-01
-1.2043652e-01
-9.6977081e-01
-1.7171213e+00
-2.1100207e+00
-2.1169261e+00
-1.8198750e+00
-1.3486481e+00
-8.2431926e-01
-2.5435957e-01
4.9581591e-01
1.5900486e+00
3.0085847e+00
4.3067866e+00
4.7261727e+00
3.7588132e+00
1.6568155e+00
-6.8183844e-01
-2.4236643e+00
-3.2376789e+00
-3.1625282e+00
-2.4560801e+00
-1.5450385e+00
-8.5092911e-01
-5.6635648e-01
-6.1947575e-01
-7.8602614e-01
-8.1867520e-01
-5.8104043e-01
-7.9196544e-02
6.3421080e-01
1.5016383e+00
2.3621863e+00
2.8671385e+00
2.6448669e+00
1.6569816e+00
3.2144209e-01
-8.4756932e-01
-1.6306706e+00
-2.0012780e+00
-1.8638090e+00
-1.1612210e+00
-1.2098065e-01
7.8754042e-01
1.1729767e+00
9.9979842e-01
5.2648303e-01
3.8413850e-02
-3.3300699e-01
-6.0495465e-01
-8.2099161e-01
-9.7075803e-01
-1.0107599e+00
-8.9087347e-01
-5.7701890e-01
-1.2131892e-01
3.5475420e-01
7.3387249e-01
8.7676113e-01
6.7031835e-01
1.8309046e-01
-3.7299186e-01
-7.8636047e-01
-8.9765217e-01
-6.4786347e-01
-1.5611486e-01
2.6292253e-01
3.2152348e-01
7.8575725e-02
-6.1014676e-02
3.0335302e-01
1.2155736e+00
2.2925148e+00
2.9424616e+00
2.7052845e+00
1.5816601e+00
1.0849697e-01
-1.0445491e+00
-1.5670307e+00
-1.6391581e+00
-1.6276258e+00
-1.6851440e+00
-1.7475486e+00
-1.7096880e+00
-1.5119282e+00
-1.1681897e+00
-7.1054539e-01
-1.3053831e-01
6.1798328e-01
1.5710045e+00
2.5777330e+00
3.1550730e+00
2.7623636e+00
1.3642954e+00
-3.8866384e-01
-1.6656397e+00
-2.0114460e+00
-1.4446419e+00
-3.6086298e-01
5.8719331e-01
8.7557415e-01
4.8762703e-01
-2.0580076e-01
-7.8477643e-01
-1.0035046e+00
-8.6745217e-01
-5.4778826e-01
-2.3036018e-01
-1.7826629e-02
7.2112366e-02
6.4793640e-02
1.5278968e-02
8.2778079e-03
1.0679652e-01
2.6236166e-01
3.2258903e-01
1.4643147e-01
-3.1036748e-01
-9.4229172e-01
-1.4784036e+00
-1.5965132e+00
-1.0573923e+00
2.2862622e-01
2.0236961e+00
3.5944593e+00
4.0473612e+00
3.0780960e+00
1.3158229e+00
-2.6341354e-01
-1.1616259e+00
-1.5034919e+00
-1.6570231e+00
-1.7586918e+00
-1.6216458e+00
-1.1423003e+00
-5.1344025e-01
-6.1033064e-02
-2.2723721e-02
-4.0090089e-01
-9.2042915e-01
-1.1589157e+00
-7.9603472e-01
2.4352073e-01
1.7073351e+00
2.9900973e+00
3.4067929e+00
2.6838497e+00
1.2319996e+00
-1.8504397e-01
-1.0779649e+00
-1.4413210e+00
-1.5440717e+00
-1.6314638e+00
-1.7577428e+00
-1.8783720e+00
-1.9411968e+00
-1.8775449e+00
-1.6303050e+00
-1.1673086e+00
-4.7107490e-01
4.0885652e-01
1.3430341e+00
2.2394544e+00
3.0575897e+00
3.6296848e+00
3.6084291e+00
2.7156321e+00
1.0628871e+00
-7.6049651e-01
-2.0610493e+00
-2.4898987e+00
-2.0583941e+00
-1.0342708e+00
4.5455966e-02
6.0058141e-01
5.1482091e-01
1.7234011e-01
-7.2819294e-02
-1.9470501e-01
-3.9484727e-01
-8.3641974e-01
-1.4313756e+00
-1.9459497e+00
-2.2264439e+00
-2.1892107e+00
-1.6821755e+00
-5.5203952e-01
1.0964599e+00
2.6932218e+00
3.3981510e+00
2.8657384e+00
1.6749781e+00
7.4784348e-01
5.0240244e-01
6.1279083e-01
4.4922703e-01
-1.6485357e-01
-7.3576849e-01
-7.4779025e-01
-1.7510968e-01
5.9697239e-01
1.0740361e+00
8.9916340e-01
3.0064182e-02
-1.2082946e+00
-2.3323387e+00
-2.9890784e+00
-3.0556950e+00
-2.5780879e+00
-1.7182953e+00
-6.2526719e-01
6.6927885e-01
2.1083740e+00
3.4013932e+00
4.0821433e+00
3.8077180e+00
2.6522463e+00
1.1225202e+00
-2.2736784e-01
-1.1114003e+00
-1.4722563e+00
-1.3926047e+00
-1.1064471e+00
-8.9685724e-01
-8.9404046e-01
-1.0476741e+00
-1.2535048e+00
-1.4141676e+00
-1.4335446e+00
-1.2551036e+00
-9.0477404e-01
-4.6213223e-01
1.5684802e-02
5.4119439e-01
1.1748104e+00
1.8838953e+00
2.3656991e+00
2.1456343e+00
1.0075419e+00
-6.7491141e-01
-2.0936920e+00
-2.5672883e+00
-1.8963329e+00
-2.9547702e-01
1.7062081e+00
3.3834748e+00
4.1087309e+00
3.6587292e+00
2.2983366e+00
5.6541252e-01
-1.0776655e+00
-2.3584930e+00
-3.0722388e+00
-3.1007716e+00
-2.5458023e+00
-1.6837623e+00
-7.5597158e-01
1.2458612e-01
8.5308507e-01
1.2738065e+00
1.2720982e+00
8.4435119e-01
8.0253070e-02
-8.5325752e-01
-1.7166092e+00
-2.2767453e+00
-2.3916604e+00
-1.9888044e+00
-9.8554628e-01
6.5195848e-01
2.6402243e+00
4.2216999e+00
4.5220802e+00
3.2383068e+00
9.4898144e-01
-1.3154306e+00
-2.7348612e+00
-3.0027537e+00
-2.2208760e+00
-6.4378331e-01
1.3983368e+00
3.3508269e+00
4.4031075e+00
3.9043759e+00
1.9668694e+00
-4.9814670e-01
-2.4807258e+00
-3.4574594e+00
-3.3904389e+00
-2.5405313e+00
-1.3560697e+00
-3.0491573e-01
3.6143195e-01
6.2480271e-01
5.2874525e-01
1.1378437e-01
-5.3340440e-01
-1.2110323e+00
-1.6454761e+00
-1.6331591e+00
-1.0927869e+00
-8.4293525e-02
1.2007630e+00
2.4992443e+00
3.4624792e+00
3.6963239e+00
3.0380325e+00
1.8122160e+00
6.5901213e-01
4.9721634e-02
4.7580863e-02
4.4012887e-01
