3.2122492e-01
4.7676468e-01
6.3742396e-01
8.0288399e-01
9.7118978e-01
1.1386395e+00
1.2998108e+00
1.4477545e+00
1.5743694e+00
1.6709504e+00
1.7288806e+00
1.7404135e+00
1.6994780e+00
1.6024256e+00
1.4486411e+00
1.2409400e+00
9.8569440e-01
6.9265049e-01
3.7443412e-01
4.5771810e-02
-2.7751546e-01
-5.7966343e-01
-8.4615920e-01
-1.0648656e+00
-1.2269609e+00
-1.3275922e+00
-1.3661717e+00
-1.3462825e+00
-1.2752033e+00
-1.1631046e+00
-1.0219995e+00
-8.6456007e-01
-7.0292371e-01
-5.4761182e-01
-4.0667331e-01
-2.8513668e-01
-1.8481913e-01
-1.0450000e-01
-4.0424009e-02
1.2935343e-02
6.1947787e-02
1.1284239e-01
1.7077920e-01
2.3908003e-01
3.1870343e-01
4.0801936e-01
5.0290384e-01
5.9713803e-01
6.8306449e-01
7.5242699e-01
7.9730034e-01
8.1100511e-01
7.8890419e-01
7.2899474e-01
6.3223717e-01
5.0259569e-01
3.4679522e-01
1.7382377e-01
-5.7704884e-03
-1.8072315e-01
-3.3996231e-01
-4.7350084e-01
-5.7323320e-01
-6.3356826e-01
-6.5184582e-01
-6.2850575e-01
-5.6700153e-01
-4.7347449e-01
-3.5622507e-01
-2.2503204e-01
-9.0378897e-02
3.7349860e-02
1.4863978e-01
2.3552770e-01
2.9214596e-01
3.1509512e-01
3.0362247e-01
2.5959516e-01
1.8727132e-01
9.2890413e-02
-1.5875745e-02
-1.3055453e-01
-2.4252347e-01
-3.4362162e-01
-4.2667486e-01
-4.8590555e-01
-5.1721413e-01
-5.1833506e-01
-4.8887674e-01
-4.3025790e-01
-3.4555280e-01
-2.3925751e-01
-1.1699084e-01
1.4854976e-02
1.4949581e-01
2.8014786e-01
4.0040730e-01
5.0459500e-01
5.8804767e-01
6.4734082e-01
6.8043247e-01
6.8672021e-01
6.6700975e-01
6.2339994e-01
5.5909643e-01
4.7817076e-01
3.8528375e-01
2.8539221e-01
1.8345593e-01
8.4159118e-02
-8.3435833e-03
-9.0647919e-02
-1.6027805e-01
-2.1580896e-01
-2.5691862e-01
-2.8435640e-01
-2.9982043e-01
-3.0574595e-01
-3.0501890e-01
-3.0064168e-01
-2.9538859e-01
-2.9149469e-01
-2.9041948e-01
-2.9271689e-01
-2.9802657e-01
-3.0518190e-01
-3.1241173e-01
-3.1759905e-01
-3.1855382e-01
-3.1326072e-01
-3.0007467e-01
-2.7785395e-01
-2.4603615e-01
-2.0467005e-01
-1.5441670e-01
-9.6528056e-02
-3.2805281e-02
3.4466165e-02
1.0261160e-01
1.6870028e-01
2.2972084e-01
2.8279410e-01
3.2540601e-01
3.5563401e-01
3.7233546e-01
3.7526866e-01
3.6512364e-01
3.4345255e-01
3.1250622e-01
2.7500008e-01
2.3384497e-01
1.9188188e-01
1.5165390e-01
1.1523708e-01
8.4138054e-02
5.9255044e-02
4.0891301e-02
2.8807750e-02
2.2302913e-02
2.0311888e-02
2.1519334e-02
2.4481845e-02
2.7752936e-02
3.0001476e-02
3.0113713e-02
2.7270078e-02
2.0989883e-02
1.1139952e-02
-2.0928170e-03
-1.8260234e-02
-3.6733565e-02
-5.6793549e-02
-7.7716458e-02
-9.8845669e-02
-1.1964232e-01
-1.3971184e-01
-1.5880517e-01
-1.7679608e-01
-1.9364038e-01
-2.0932706e-01
-2.2383309e-01
-2.3709120e-01
-2.4897503e-01
-2.5930064e-01
-2.6783789e-01
-2.7432197e-01
-2.7845587e-01
-2.7989946e-01
-2.7824849e-01
-2.7301324e-01
-2.6360902e-01
-2.4936906e-01
-2.2958615e-01
-2.0358317e-01
-1.7080607e-01
-1.3092651e-01
-8.3937382e-02
-3.0225477e-02
2.9390183e-02
9.3660391e-02
1.6095014e-01
2.2932391e-01
2.9666481e-01
3.6081390e-01
4.1971150e-01
4.7152255e-01
5.1473092e-01
5.4819289e-01
5.7114652e-01
5.8318158e-01
5.8418087e-01
5.7424842e-01
5.5364135e-01
5.2271931e-01
4.8191964e-01
4.3175949e-01
3.7285962e-01
3.0598023e-01
2.3205632e-01
1.5222045e-01
6.7805273e-02
-1.9676588e-02
-1.0857163e-01
-1.9713732e-01
-2.8359895e-01
-3.6620445e-01
-4.4327027e-01
-5.1321322e-01
-5.7456498e-01
-6.2596996e-01
-6.6617240e-01
-6.9400333e-01
-7.0838092e-01
-7.0833508e-01
-6.9305998e-01
-6.6199057e-01
-6.1489486e-01
-5.5197272e-01
-4.7395268e-01
-3.8217588e-01
-2.7865388e-01
-1.6608460e-01
-4.7813179e-02
7.2268664e-02
1.8988091e-01
3.0055954e-01
3.9989232e-01
4.8377249e-01
5.4865749e-01
5.9181863e-01
6.1156396e-01
6.0741157e-01
5.8018764e-01
5.3202729e-01
4.6626710e-01
3.8723319e-01
2.9994201e-01
2.0974127e-01
1.2192336e-01
4.1346346e-02
-2.7903827e-02
-8.2779213e-02
-1.2144128e-01
-1.4332687e-01
-1.4911070e-01
-1.4057683e-01
-1.2041682e-01
-9.1974790e-02
-5.8959935e-02
-2.5148614e-02
5.9019122e-03
3.1107026e-02
4.8058320e-02
5.5165387e-02
5.1730211e-02
3.7954001e-02
1.4880926e-02
-1.5712419e-02
-5.1468946e-02
-8.9629593e-02
-1.2722485e-01
-1.6126897e-01
-1.8894982e-01
-2.0780913e-01
-2.1590757e-01
-2.1196754e-01
-1.9548301e-01
-1.6678387e-01
-1.2704348e-01
-7.8223366e-02
-2.2957739e-02
3.5611259e-02
9.4031250e-02
1.4875325e-01
1.9634770e-01
2.3371417e-01
2.5827938e-01
2.6817942e-01
2.6241842e-01
2.4099061e-01
2.0494756e-01
1.5639230e-01
9.8388009e-02
3.4778276e-02
-3.0075175e-02
-9.1623154e-02
-1.4550537e-01
-1.8794117e-01
-2.1609688e-01
-2.2839027e-01
-2.2469674e-01
-2.0642947e-01
-1.7647500e-01
-1.3897652e-01
-9.8971165e-02
-6.1904750e-02
-3.3065516e-02
-1.6992434e-02
-1.6922092e-02
-3.4338926e-02
-6.8686417e-02
-1.1728162e-01
-1.7545354e-01
-2.3690020e-01
-2.9423431e-01
-3.3966558e-01
-3.6575204e-01
-3.6614289e-01
-3.3623601e-01
-2.7368531e-01
-1.7871535e-01
-5.4225103e-02
9.4316912e-02
2.5916987e-01
4.3078394e-01
5.9839579e-01
7.5071717e-01
8.7667639e-01
9.6617268e-01
1.0108032e+00
1.0045202e+00
9.4417411e-01
8.2989858e-01
6.6529973e-01
4.5741894e-01
2.1645241e-01
-4.4774845e-02
-3.1156290e-01
-5.6827906e-01
-7.9942556e-01
-9.9075172e-01
-1.1303154e+00
-1.2093944e+00
-1.2231565e+00
-1.1710204e+00
-1.0566716e+00
-8.8773903e-01
-6.7516807e-01
-4.3235725e-01
-1.7414205e-01
8.4281753e-02
3.2840507e-01
5.4534383e-01
7.2460590e-01
8.5864248e-01
9.4315887e-01
9.7717780e-01
9.6286653e-01
9.0515525e-01
8.1118593e-01
6.8963856e-01
5.4998691e-01
4.0174060e-01
2.5373452e-01
1.1352392e-01
-1.3066369e-02
-1.2220762e-01
-2.1213631e-01
-2.8303410e-01
-3.3674232e-01
-3.7634815e-01
-4.0568823e-01
-4.2881931e-01
-4.4950408e-01
-4.7075588e-01
-4.9447939e-01
-5.2123666e-01
-5.5015756e-01
-5.7900132e-01
-6.0436222e-01
-6.2200050e-01
-6.2726938e-01
-6.1560193e-01
-5.8301472e-01
-5.2658216e-01
-4.4483667e-01
-3.3805457e-01
-2.0839722e-01
-5.9888180e-02
1.0177716e-01
2.6957517e-01
4.3561770e-01
5.9168821e-01
7.2979614e-01
8.4269899e-01
9.2435171e-01
9.7025639e-01
9.7770010e-01
9.4588229e-01
8.7594273e-01
7.7090356e-01
6.3553530e-01
4.7614954e-01
3.0031683e-01
1.1650912e-01
-6.6327115e-02
-2.3925127e-01
-3.9383605e-01
-5.2266541e-01
-6.1977950e-01
-6.8102219e-01
-7.0425534e-01
-6.8942003e-01
-6.3844487e-01
-5.5502028e-01
-4.4427142e-01
-3.1237143e-01
-1.6613846e-01
-1.2654983e-02
1.4106375e-01
2.8833963e-01
4.2304108e-01
5.3974121e-01
6.3383785e-01
7.0164771e-01
7.4048408e-01
7.4872133e-01
7.2584142e-01
6.7245120e-01
5.9025940e-01
4.8200878e-01
3.5136700e-01
2.0278406e-01
4.1324540e-02
-1.2751834e-01
-2.9801881e-01
-4.6441599e-01
-6.2110466e-01
-7.6281503e-01
-8.8478060e-01
-9.8289440e-01
-1.0538526e+00
-1.0952823e+00
-1.1058488e+00
-1.0853333e+00
-1.0346724e+00
-9.5594547e-01
-8.5230094e-01
-7.2781495e-01
-5.8728627e-01
-4.3597540e-01
-2.7930309e-01
-1.2252902e-01
2.9562020e-02
1.7293511e-01
3.0451141e-01
4.2228219e-01
5.2531719e-01
6.1366508e-01
6.8815525e-01
7.5012318e-01
8.0109250e-01
8.4245550e-01
8.7519495e-01
8.9968490e-01
9.1559587e-01
9.2191570e-01
9.1708322e-01
8.9921938e-01
8.6643003e-01
8.1714603e-01
7.5046135e-01
6.6642803e-01
5.6626899e-01
4.5247363e-01
3.2874979e-01
1.9981722e-01
7.1044532e-02
-5.2048074e-02
-1.6437410e-01
-2.6188476e-01
-3.4210607e-01
-4.0452044e-01
-4.5071789e-01
-4.8427207e-01
-5.1033444e-01
-5.3498125e-01
-5.6438412e-01
-6.0390304e-01
-6.5721539e-01
-7.2559577e-01
-8.0744720e-01
-8.9815626e-01
-9.9030531e-01
-1.0742307e+00
-1.1388736e+00
-1.1728364e+00
-1.1655391e+00
-1.1083586e+00
-9.9564690e-01
-8.2553052e-01
-6.0041947e-01
-3.2717067e-01
-1.6877535e-02
3.1571379e-01
6.5312826e-01
9.7636115e-01
1.2662607e+00
1.5049827e+00
1.6773928e+00
1.7722929e+00
1.7833581e+00
1.7096962e+00
1.5559726e+00
1.3320836e+00
1.0524006e+00
7.3465143e-01
3.9854236e-01
6.4249690e-02
-2.4907899e-01
-5.2468053e-01
-7.4927367e-01
-9.1381352e-01
-1.0138579e+00
-1.0495429e+00
-1.0252034e+00
-9.4870095e-01
-8.3054147e-01
-6.8287468e-01
-5.1847116e-01
-3.4976651e-01
-1.8804455e-01
-4.2807191e-02
7.8646867e-02
1.7143454e-01
2.3310916e-01
2.6351881e-01
2.6453773e-01
2.3970828e-01
1.9382896e-01
1.3252020e-01
6.1795672e-02
-1.2335855e-02
-8.4216522e-02
-1.4881784e-01
-2.0194467e-01
-2.4036669e-01
-2.6188504e-01
-2.6534564e-01
-2.5061196e-01
-2.1850873e-01
-1.7074413e-01
-1.0981090e-01
-3.8863178e-02
3.8433993e-02
1.1808189e-01
1.9594730e-01
2.6797632e-01
3.3041364e-01
3.8001664e-01
4.1425227e-01
4.3146309e-01
4.3098838e-01
4.1322622e-01
3.7962376e-01
3.3258693e-01
2.7530963e-01
2.1153468e-01
1.4526914e-01
8.0481450e-02
2.0806706e-02
-3.0717967e-02
-7.1868370e-02
-1.0138076e-01
-1.1901673e-01
-1.2553680e-01
-1.2258395e-01
-1.1248950e-01
-9.8021479e-02
-8.2101195e-02
-6.7516361e-02
-5.6661339e-02
-5.1333003e-02
-5.2604528e-02
-6.0789760e-02
-7.5499005e-02
-9.5773599e-02
-1.2027327e-01
-1.4748129e-01
-1.7589157e-01
-2.0414920e-01
-2.3112909e-01
-2.5595160e-01
-2.7794544e-01
-2.9657440e-01
-3.1134544e-01
-3.2171373e-01
-3.2699891e-01
-3.2632677e-01
-3.1861070e-01
-3.0258601e-01
-2.7690407e-01
-2.4028406e-01
-1.9171028e-01
-1.3065336e-01
-5.7286769e-02
2.7334996e-02
1.2116868e-01
2.2116896e-01
3.2338016e-01
4.2312905e-01
5.1530325e-01
5.9469201e-01
6.5636136e-01
6.9603358e-01
7.1043868e-01
6.9760536e-01
6.5706052e-01
5.8991392e-01
4.9881574e-01
3.8778998e-01
2.6196024e-01
1.2719686e-01
-1.0278572e-02
-1.4429272e-01
-2.6908857e-01
-3.7963343e-01
-4.7184658e-01
-5.4273610e-01
-5.9044428e-01
-6.1421213e-01
-6.1428276e-01
-5.9176850e-01
-5.4850502e-01
-4.8690936e-01
-4.0984995e-01
-3.2053035e-01
-2.2238634e-01
-1.1899593e-01
-1.4001787e-02
8.8955965e-02
1.8630110e-01
2.7458301e-01
3.5054593e-01
4.1121201e-01
4.5398200e-01
4.7675344e-01
4.7805166e-01
4.5716685e-01
4.1428708e-01
3.5061364e-01
2.6844040e-01
1.7117596e-01
6.3288508e-02
-4.9841494e-02
-1.6216616e-01
-2.6730523e-01
-3.5895015e-01
-4.3130285e-01
-4.7950671e-01
-5.0002574e-01
-4.9093534e-01
-4.5210035e-01
-3.8522993e-01
-2.9380966e-01
-1.8291869e-01
-5.8945055e-02
7.0783594e-02
1.9843349e-01
3.1614002e-01
4.1649949e-01
4.9304846e-01
5.4069699e-01
5.5608162e-01
5.3780869e-01
4.8656855e-01
4.0511187e-01
2.9808946e-01
1.7176460e-01
3.3615601e-02
-1.0814580e-01
-2.4510672e-01
-3.6919817e-01
-4.7321398e-01
-5.5126708e-01
-5.9915188e-01
-6.1458791e-01
-5.9732878e-01
-5.4912938e-01
-4.7357470e-01
-3.7578376e-01
-2.6201332e-01
-1.3919530e-01
-1.4448391e-02
1.0539527e-01
2.1421210e-01
3.0693020e-01
3.7977561e-01
4.3041169e-01
4.5797052e-01
4.6298290e-01
4.4722210e-01
4.1348293e-01
3.6532010e-01
3.0676865e-01
2.4206636e-01
1.7539446e-01
1.1064966e-01
5.1255654e-02
1.6794542e-05
-4.0987371e-02
-7.0469632e-02
-8.7966285e-02
-9.3831234e-02
-8.9190600e-02
-7.5855303e-02
-5.6190984e-02
-3.2948347e-02
-9.0620619e-03
1.2568223e-02
2.9297705e-02
3.8939594e-02
3.9935551e-02
3.1479076e-02
1.3579756e-02
-1.2939272e-02
-4.6511724e-02
-8.4960565e-02
-1.2568101e-01
-1.6585847e-01
-2.0270247e-01
-2.3367573e-01
-2.5669788e-01
-2.7030663e-01
-2.7376487e-01
-2.6710751e-01
-2.5112595e-01
-2.2729032e-01
-1.9761225e-01
-1.6445542e-01
-1.3030702e-01
-9.7529748e-02
-6.8118409e-02
-4.3486266e-02
-2.4304001e-02
-1.0409995e-02
-8.0533418e-04
6.2592198e-03
1.3105103e-02
2.2368093e-02
3.6684188e-02
5.8352707e-02
8.9014743e-02
1.2938320e-01
1.7905405e-01
2.3642037e-01
2.9870228e-01
3.6209702e-01
4.2204305e-01
4.7357991e-01
5.1177517e-01
5.3218144e-01
5.3128062e-01
5.0686919e-01
4.5833937e-01
3.8681771e-01
2.9513668e-01
1.8763508e-01
6.9807061e-02
-5.2158076e-02
-1.7188749e-01
-2.8332556e-01
-3.8116808e-01
-4.6119040e-01
-5.2045034e-01
-5.5736591e-01
-5.7168125e-01
-5.6434210e-01
-5.3730599e-01
-4.9331347e-01
-4.3564424e-01
-3.6787805e-01
-2.9367450e-01
-2.1658139e-01
-1.3987613e-01
-6.6441799e-02
1.3235130e-03
6.1564715e-02
1.1299496e-01
1.5488674e-01
1.8702935e-01
2.0965791e-01
2.2336392e-01
2.2899775e-01
2.2757118e-01
2.2016551e-01
2.0785186e-01
1.9163195e-01
1.7240648e-01
1.5097309e-01
1.2804855e-01
1.0430481e-01
8.0406038e-02
5.7034993e-02
3.4899506e-02
1.4714355e-02
-2.8403182e-03
-1.7176722e-02
-2.7861665e-02
-3.4671061e-02
-3.7627065e-02
-3.7011967e-02
-3.3355845e-02
-2.7396670e-02
-2.0014150e-02
-1.2142850e-02
-4.6744936e-03
1.6382404e-03
6.2634804e-03
8.9445802e-03
9.7158604e-03
8.8737925e-03
6.9073057e-03
4.4011983e-03
1.9331405e-03
-1.4985005e-05
-1.1162382e-03
-1.2221160e-03
-3.5345868e-04
1.3313323e-03
3.5776170e-03
6.0727834e-03
8.4731786e-03
1.0418595e-02
1.1540054e-02
1.1469036e-02
9.8536094e-03
6.3832330e-03
8.2260778e-04
-6.9456911e-03
-1.6873161e-02
-2.8700542e-02
-4.1928880e-02
-5.5819062e-02
-6.9428023e-02
-8.1682934e-02
-9.1486860e-02
-9.7842112e-02
-9.9972360e-02
-9.7423608e-02
-9.0127990e-02
-7.8422062e-02
-6.3019866e-02
-4.4947506e-02
-2.5448875e-02
-5.8727765e-03
1.2448008e-02
2.8314807e-02
4.0767666e-02
4.9166945e-02
5.3244118e-02
5.3116522e-02
4.9264601e-02
4.2474793e-02
3.3755776e-02
2.4239547e-02
1.5080442e-02
7.3639081e-03
2.0330987e-03
-1.6335120e-04
1.2966960e-03
6.6929510e-03
1.6057041e-02
2.9172253e-02
4.5576922e-02
6.4573098e-02
8.5243839e-02
1.0648217e-01
1.2703337e-01
1.4555017e-01
1.6065836e-01
1.7102839e-01
1.7544851e-01
1.7289588e-01
1.6260398e-01
1.4412554e-01
1.1739033e-01
8.2755294e-02
4.1042683e-02
-6.4411388e-03
-5.7915554e-02
-1.1117426e-01
-1.6367947e-01
-2.1270187e-01
-2.5549732e-01
-2.8950451e-01
-3.1254383e-01
-3.2299805e-01
-3.1995626e-01
-3.0330496e-01
-2.7375445e-01
-2.3279588e-01
-1.8259233e-01
-1.2581562e-01
-6.5446713e-02
-4.5617276e-03
5.3873774e-02
1.0718252e-01
1.5311250e-01
1.8992873e-01
2.1646207e-01
2.3212005e-01
2.3686558e-01
2.3116937e-01
2.1594363e-01
1.9246527e-01
1.6229624e-01
1.2720572e-01
8.9095098e-02
4.9924530e-02
1.1637593e-02
-2.3920167e-02
-5.5092189e-02
-8.0509856e-02
-9.9190355e-02
-1.1061861e-01
-1.1479794e-01
-1.1225809e-01
-1.0401518e-01
-9.1482998e-02
-7.6341448e-02
-6.0373218e-02
-4.5285431e-02
-3.2535504e-02
-2.3180729e-02
-1.7769804e-02
-1.6291730e-02
-1.8191993e-02
-2.2456456e-02
-2.7751762e-02
-3.2600798e-02
-3.5565975e-02
-3.5412997e-02
-3.1233286e-02
-2.2512304e-02
-9.1407412e-03
8.6261395e-03
3.0249474e-02
5.5012401e-02
8.2132479e-02
1.1086267e-01
1.4056406e-01
1.7073718e-01
2.0100539e-01
2.3105208e-01
2.6052191e-01
2.8890393e-01
3.1541858e-01
3.3893191e-01
3.5791795e-01
3.7048345e-01
3.7446009e-01
3.6755698e-01
3.4755590e-01
3.1252527e-01
2.6102913e-01
1.9231156e-01
1.0644185e-01
4.4101627e-03
-1.1183197e-01
-2.3938645e-01
-3.7447430e-01
-5.1254721e-01
-6.4844081e-01
-7.7656618e-01
-8.9113501e-01
-9.8641193e-01
-1.0569872e+00
-1.0980623e+00
-1.1057390e+00
-1.0772962e+00
-1.0114372e+00
-9.0848513e-01
-7.7050637e-01
-6.0134410e-01
-4.0654708e-01
-1.9318362e-01
3.0462301e-02
2.5530718e-01
4.7197932e-01
6.7139552e-01
8.4536004e-01
9.8713093e-01
1.0918947e+00
1.1570959e+00
1.1825831e+00
1.1705536e+00
1.1253001e+00
1.0527824e+00
9.6006280e-01
8.5466002e-01
7.4387988e-01
6.3418766e-01
5.3068207e-01
4.3672359e-01
3.5375496e-01
2.8133251e-01
2.1736416e-01
1.5852622e-01
1.0080974e-01
4.0131489e-02
-2.7062634e-02
-1.0327269e-01
-1.8955976e-01
-2.8534562e-01
-3.8841782e-01
-4.9513216e-01
-6.0077674e-01
-7.0004178e-01
-7.8753167e-01
-8.5825975e-01
-9.0807590e-01
-9.3399068e-01
-9.3437473e-01
-9.0902733e-01
-8.5912163e-01
-7.8704454e-01
-6.9615862e-01
-5.9051887e-01
-4.7457886e-01
-3.5291537e-01
-2.2999189e-01
-1.0997168e-01
3.4168818e-03
1.0696647e-01
1.9803882e-01
2.7458895e-01
3.3518032e-01
3.7899990e-01
4.0587490e-01
4.1628528e-01
4.1136219e-01
3.9286045e-01
3.6309498e-01
3.2483631e-01
2.8116709e-01
2.3530880e-01
1.9043260e-01
1.4947074e-01
1.1494558e-01
8.8831470e-02
7.2462465e-02
6.6493131e-02
7.0912929e-02
8.5107123e-02
1.0795211e-01
1.3793082e-01
1.7325293e-01
2.1196486e-01
2.5203717e-01
2.9142335e-01
3.2809218e-01
3.6004209e-01
3.8530980e-01
4.0198558e-01
4.0824749e-01
4.0242585e-01
3.8310638e-01
3.4927168e-01
3.0046864e-01
2.3697733e-01
1.5995073e-01
7.1495004e-02
-2.5334925e-02
-1.2664086e-01
-2.2789141e-01
-3.2422334e-01
-4.1080450e-01
-4.8321759e-01
-5.3782137e-01
-5.7204955e-01
-5.8461665e-01
-5.7561189e-01
-5.4647644e-01
-4.9987169e-01
-4.3945619e-01
-3.6959464e-01
-2.9502563e-01
-2.2051619e-01
-1.5053076e-01
-8.8939283e-02
-3.8784284e-02
-2.1205741e-03
2.0066064e-02
2.7861128e-02
2.2349874e-02
5.4819860e-03
-2.0112891e-02
-5.1340132e-02
-8.4865436e-02
-1.1733183e-01
-1.4555398e-01
-1.6668122e-01
-1.7832658e-01
-1.7866411e-01
-1.6649946e-01
-1.4131812e-01
-1.0331347e-01
-5.3392613e-02
6.8437677e-03
7.5152475e-02
1.4873348e-01
2.2435296e-01
2.9850410e-01
3.6760208e-01
4.2820430e-01
4.7724119e-01
5.1223831e-01
5.3150884e-01
5.3429555e-01
5.2084424e-01
4.9239554e-01
4.5109149e-01
3.9980482e-01
3.4190956e-01
2.8101770e-01
2.2070787e-01
1.6427042e-01
1.1448932e-01
7.3477648e-02
4.2577118e-02
2.2325296e-02
1.2484662e-02
1.2119246e-02
1.9699192e-02
3.3213210e-02
5.0273531e-02
6.8206404e-02
8.4130441e-02
9.5031766e-02
9.7847373e-02
8.9567250e-02
6.7363422e-02
2.8750619e-02
-2.8221756e-02
-1.0475354e-01
-2.0106844e-01
-3.1620146e-01
-4.4782621e-01
-5.9215137e-01
-7.4391285e-01
-8.9648192e-01
-1.0421000e+00
-1.1722396e+00
-1.2780771e+00
-1.3510498e+00
-1.3834572e+00
-1.3690550e+00
-1.3035886e+00
-1.1852138e+00
-1.0147638e+00
-7.9583581e-01
-5.3468886e-01
-2.3995713e-01
7.7796956e-02
4.0665404e-01
7.3398475e-01
1.0471179e+00
1.3339766e+00
1.5836374e+00
1.7867849e+00
1.9360490e+00
2.0262262e+00
2.0543956e+00
2.0199425e+00
1.9245031e+00
1.7718396e+00
1.5676603e+00
1.3193900e+00
1.0359032e+00
7.2721981e-01
4.0416413e-01
7.7985206e-02
-2.4005747e-01
-5.3913128e-01
-8.0927219e-01
-1.0418078e+00
-1.2297349e+00
-1.3680236e+00
-1.4538252e+00
-1.4865695e+00
-1.4679485e+00
-1.4017931e+00
-1.2938513e+00
-1.1514788e+00
-9.8325075e-01
-7.9850918e-01
-6.0686242e-01
-4.1766253e-01
-2.3949033e-01
-7.9681917e-02
5.6069720e-02
1.6400613e-01
2.4246074e-01
2.9186368e-01
3.1458817e-01
3.1464779e-01
2.9726904e-01
2.6837725e-01
2.3404352e-01
1.9994469e-01
1.7088780e-01
1.5044304e-01
1.4071752e-01
1.4228540e-01
1.5427165e-01
1.7456846e-01
2.0014896e-01
2.2743626e-01
2.5268709e-01
2.7235559e-01
2.8340911e-01
2.8357453e-01
2.7149981e-01
2.4682340e-01
2.1015305e-01
1.6296485e-01
1.0744102e-01
4.6271463e-02
-1.7552933e-02
-8.0929020e-02
-1.4079364e-01
-1.9423296e-01
-2.3855573e-01
-2.7134674e-01
-2.9051996e-01
-2.9438821e-01
-2.8175918e-01
-2.5205701e-01
-2.0545790e-01
-1.4301873e-01
-6.6771734e-02
2.0242766e-02
1.1402993e-01
2.0979539e-01
3.0220222e-01
3.8571382e-01
4.5499191e-01
5.0530883e-01
5.3293017e-01
5.3542605e-01
5.1187746e-01
4.6295624e-01
3.9087330e-01
2.9920544e-01
1.9262519e-01
7.6565310e-02
-4.3149767e-02
-1.6067642e-01
-2.7050309e-01
-3.6775853e-01
-4.4845905e-01
-5.0968244e-01
-5.4966278e-01
-5.6780703e-01
-5.6463958e-01
-5.4168561e-01
-5.0130717e-01
-4.4650790e-01
-3.8072233e-01
-3.0760495e-01
-2.3083225e-01
-1.5392780e-01
-8.0115719e-02
-1.2202770e-02
4.7513210e-02
9.7310270e-02
1.3608350e-01
1.6335703e-01
1.7926435e-01
1.8449631e-01
1.8021941e-01
1.6796933e-01
1.4952958e-01
1.2680852e-01
1.0172826e-01
7.6134467e-02
5.1728269e-02
3.0015667e-02
1.2268986e-02
-5.0275287e-04
-7.5753630e-03
-8.5235022e-03
-3.2284711e-03
8.1189854e-03
2.5020951e-02
4.6681539e-02
7.2026423e-02
9.9736981e-02
1.2830325e-01
1.5609806e-01
1.8147081e-01
2.0285316e-01
2.1886353e-01
2.2839579e-01
2.3068180e-01
2.2532501e-01
2.1230801e-01
1.9197862e-01
1.6501915e-01
1.3240366e-01
9.5347971e-02
5.5256709e-02
1.3668507e-02
-2.7802661e-02
-6.7533048e-02
-1.0396277e-01
-1.3567493e-01
-1.6147471e-01
-1.8046068e-01
-1.9208065e-01
-1.9616468e-01
-1.9293140e-01
-1.8296809e-01
-1.6718944e-01
-1.4678152e-01
-1.2313573e-01
-9.7774777e-02
-7.2271414e-02
-4.8161391e-02
-2.6853232e-02
-9.5378806e-03
2.8974681e-03
9.9434076e-03
1.1518496e-02
7.9841764e-03
1.1906603e-04
-1.0944763e-02
-2.3815549e-02
-3.6956585e-02
-4.8814018e-02
-5.7950631e-02
-6.3177457e-02
-6.3672819e-02
-5.9077061e-02
-4.9552409e-02
-3.5800525e-02
-1.9033760e-02
-8.9947335e-04
1.6639421e-02
3.1460024e-02
4.1459436e-02
4.4745069e-02
3.9820570e-02
2.5752770e-02
2.3057871e-03
-2.9969983e-02
-6.9703253e-02
-1.1472716e-01
-1.6216606e-01
-2.0858071e-01
-2.5016342e-01
-2.8296981e-01
-3.0317121e-01
-3.0731200e-01
-2.9255916e-01
-2.5693337e-01
-1.9951211e-01
-1.2059387e-01
-2.1810705e-02
9.3825377e-02
2.2195552e-01
3.5699602e-01
4.9235291e-01
6.2072677e-01
7.3450015e-01
8.2619258e-01
8.8895994e-01
9.1710511e-01
9.0655902e-01
8.5528742e-01
7.6358046e-01
6.3418964e-01
4.7228877e-01
2.8525062e-01
8.2247477e-02
-1.2629917e-01
-3.2938125e-01
-5.1613112e-01
-6.7656010e-01
-8.0225377e-01
-8.8696940e-01
-9.2708467e-01
-9.2185691e-01
-8.7346667e-01
-7.8683863e-01
-6.6925267e-01
-5.2977673e-01
-3.7856948e-01
-2.2611266e-01
-8.2437480e-02
4.3593418e-02
1.4489610e-01
2.1662705e-01
2.5646759e-01
2.6471282e-01
2.4415713e-01
1.9978148e-01
1.3826323e-01
6.7347000e-02
-4.8679994e-03
-7.0655486e-02
-1.2333189e-01
-1.5780335e-01
-1.7094248e-01
-1.6176926e-01
-1.3143021e-01
-8.2987462e-02
-2.1044425e-02
4.8751631e-02
1.2027894e-01
1.8752548e-01
2.4513155e-01
2.8884122e-01
3.1582453e-01
3.2484612e-01
3.1627185e-01
2.9192249e-01
2.5480042e-01
2.0872798e-01
1.5794120e-01
1.0668237e-01
5.8831296e-02
1.7607970e-02
-1.4632496e-02
-3.6506321e-02
-4.7615496e-02
-4.8484173e-02
-4.0432667e-02
-2.5404462e-02
-5.7625164e-03
1.5926957e-02
3.7104681e-02
5.5406465e-02
6.8818082e-02
7.5791022e-02
7.5318247e-02
6.6972635e-02
5.0911805e-02
2.7851582e-02
-9.9142297e-04
-3.3986990e-02
-6.9203751e-02
-1.0453876e-01
-1.3785470e-01
-1.6711672e-01
-1.9052360e-01
-2.0662833e-01
-2.1444187e-01
-2.1351106e-01
-2.0396138e-01
-1.8649655e-01
-1.6234987e-01
-1.3318545e-01
-1.0095286e-01
-6.7705887e-02
-3.5404449e-02
-5.7241283e-03
2.0101497e-02
4.1385172e-02
5.8024050e-02
7.0466864e-02
7.9613080e-02
8.6654529e-02
9.2877881e-02
9.9453205e-02
1.0723706e-01
1.1661658e-01
1.2741472e-01
1.3886946e-01
1.4969266e-01
1.5820669e-01
1.6254725e-01
1.6090940e-01
1.5180502e-01
1.3429599e-01
1.0816892e-01
7.4024996e-02
3.3269272e-02
-1.2000955e-02
-5.9193971e-02
-1.0548009e-01
-1.4807266e-01
-1.8449911e-01
-2.1283090e-01
-2.3184624e-01
-2.4110724e-01
-2.4094443e-01
-2.3235474e-01
-2.1683097e-01
-1.9614934e-01
-1.7214529e-01
-1.4650625e-01
-1.2060476e-01
-9.5387828e-02
-7.1330083e-02
-4.8450697e-02
-2.6387502e-02
-4.5168966e-03
1.7896376e-02
4.1539240e-02
6.6900657e-02
9.4150007e-02
1.2305590e-01
1.5295265e-01
1.8275761e-01
2.1103935e-01
2.3613340e-01
2.5629803e-01
2.6989714e-01
2.7559180e-01
2.7251748e-01
2.6042253e-01
2.3974665e-01
2.1162557e-01
1.7781763e-01
1.4055793e-01
1.0235474e-01
6.5749312e-02
3.3064401e-02
6.1672262e-03
-1.3728110e-02
-2.6197671e-02
-3.1668469e-02
-3.1393848e-02
-2.7341885e-02
-2.2004187e-02
-1.8142128e-02
-1.8495799e-02
-2.5485842e-02
-4.0939519e-02
-6.5870163e-02
-1.0033357e-01
-1.4337604e-01
-1.9307801e-01
-2.4668653e-01
-3.0082143e-01
-3.5173415e-01
-3.9559546e-01
-4.2878772e-01
-4.4817982e-01
-4.5136619e-01
-4.3685522e-01
-4.0419585e-01
-3.5403390e-01
-2.8809290e-01
-2.0907878e-01
-1.2051359e-01
-2.6509807e-02
6.8497620e-02
1.6004138e-01
2.4391366e-01
3.1644047e-01
3.7471963e-01
4.1680349e-01
4.4180884e-01
4.4994192e-01
4.4243404e-01
4.2139224e-01
3.8957834e-01
3.5013836e-01
3.0631066e-01
2.6114196e-01
2.1723740e-01
1.7656556e-01
1.4033537e-01
1.0895582e-01
8.2080682e-02
5.8729006e-02
3.7462751e-02
1.6598798e-02
-5.5666818e-03
-3.0540618e-02
-5.9439049e-02
-9.2832126e-02
-1.3064123e-01
-1.7209738e-01
-2.1576546e-01
-2.5963467e-01
-3.0127038e-01
-3.3801603e-01
-3.6722576e-01
-3.8650194e-01
-3.9391082e-01
-3.8815248e-01
-3.6866792e-01
-3.3567389e-01
-2.9012515e-01
-2.3361245e-01
-1.6821208e-01
-9.6308333e-02
-2.0412735e-02
5.6997684e-02
1.3360657e-01
2.0733973e-01
2.7640055e-01
3.3926470e-01
3.9464508e-01
4.4144133e-01
4.7868761e-01
5.0551012e-01
5.2110187e-01
5.2471878e-01
5.1569910e-01
4.9350510e-01
4.5778388e-01
4.0844109e-01
3.4572034e-01
2.7027985e-01
1.8325723e-01
8.6312051e-02
-1.8364565e-02
-1.2808080e-01
-2.3971798e-01
-3.4984370e-01
-4.5485648e-01
-5.5115071e-01
-6.3528814e-01
-7.0416040e-01
-7.5512835e-01
-7.8612832e-01
-7.9574183e-01
-7.8323172e-01
-7.4855170e-01
-6.9233741e-01
-6.1588565e-01
-5.2112622e-01
-4.1058731e-01
-2.8735182e-01
-1.5499956e-01
-1.7529423e-02
1.2074349e-01
2.5531981e-01
3.8167862e-01
4.9546931e-01
5.9272463e-01
6.7008137e-01
7.2499029e-01
7.5589490e-01
7.6235894e-01
7.4512547e-01
7.0609613e-01
6.4822703e-01
5.7534528e-01
4.9189758e-01
4.0264800e-01
3.1234729e-01
2.2540060e-01
1.4556360e-01
7.5696449e-02
1.7600312e-02
-2.8046881e-02
-6.1649261e-02
-8.4552241e-02
-9.8820428e-02
-1.0696363e-01
-1.1164695e-01
-1.1542122e-01
-1.2050346e-01
-1.2862602e-01
-1.4095974e-01
-1.5810433e-01
-1.8013004e-01
-2.0665056e-01
-2.3690763e-01
-2.6985161e-01
-3.0420900e-01
-3.3853520e-01
-3.7125771e-01
-4.0072035e-01
-4.2523933e-01
-4.4317843e-01
-4.5304248e-01
-4.5358027e-01
-4.4388099e-01
-4.2344694e-01
-3.9222765e-01
-3.5060692e-01
-2.9934271e-01
-2.3947054e-01
-1.7219196e-01
-9.8774452e-02
-2.0487345e-02
6.1411231e-02
1.4563287e-01
2.3077323e-01
3.1520504e-01
3.9698026e-01
4.7377216e-01
5.4288040e-01
6.0131037e-01
6.4592516e-01
6.7365852e-01
6.8177130e-01
6.6813052e-01
6.3148647e-01
5.7172000e-01
4.9003013e-01
3.8903317e-01
2.7274769e-01
1.4644613e-01
1.6366351e-02
-1.1070529e-01
-2.2794586e-01
-3.2905040e-01
-4.0876758e-01
-4.6335705e-01
-4.9091990e-01
-4.9156700e-01
-4.6740494e-01
-4.2233652e-01
-3.6169203e-01
-2.9172743e-01
-2.1904103e-01
-1.4996942e-01
-9.0025163e-02
-4.3431823e-02
-1.2798969e-02
1.0376185e-03
-9.9710584e-04
-1.6394985e-02
-4.1383900e-02
-7.1353486e-02
-1.0134261e-01
-1.2653852e-01
-1.4273736e-01
-1.4672136e-01
-1.3651933e-01
-1.1153265e-01
-7.2525427e-02
-2.1492626e-02
3.8568247e-02
1.0394837e-01
1.7054715e-01
2.3419010e-01
2.9092263e-01
3.3726419e-01
3.7041221e-01
3.8838889e-01
3.9012687e-01
3.7549392e-01
3.4526034e-01
3.0101625e-01
2.4504805e-01
1.8018441e-01
1.0962284e-01
3.6746839e-02
-3.5057156e-02
-1.0257598e-01
-1.6293248e-01
-2.1372918e-01
-2.5316638e-01
-2.8012757e-01
-2.9422388e-01
-2.9579119e-01
-2.8583675e-01
-2.6593786e-01
-2.3810115e-01
-2.0459674e-01
-1.6778415e-01
-1.2994742e-01
-9.3153656e-02
-5.9143895e-02
-2.9258685e-02
-4.3959689e-03
1.5001844e-02
2.8932174e-02
3.7786463e-02
4.2274337e-02
4.3322651e-02
4.1959572e-02
3.9196892e-02
3.5923973e-02
3.2825477e-02
3.0332645e-02
2.8614097e-02
2.7606300e-02
2.7076665e-02
2.6706278e-02
2.6177477e-02
2.5254211e-02
2.3847449e-02
2.2060439e-02
2.0208702e-02
1.8809698e-02
1.8539478e-02
2.0158510e-02
2.4414414e-02
3.1933324e-02
4.3112976e-02
5.8029618e-02
7.6368489e-02
9.7385292e-02
1.1990446e-01
1.4235908e-01
1.6287579e-01
1.7940447e-01
1.8988618e-01
1.9244639e-01
1.8559472e-01
1.6840946e-01
1.4068361e-01
1.0301109e-01
5.6797634e-02
4.1911122e-03
-5.2062764e-02
-1.0882284e-01
-1.6279014e-01
-2.1075544e-01
-2.4983309e-01
-2.7766077e-01
-2.9255097e-01
-2.9358664e-01
-2.8066015e-01
-2.5445979e-01
-2.1641022e-01
-1.6857507e-01
-1.1353126e-01
-5.4225234e-02
6.1803293e-03
6.4462723e-02
1.1749363e-01
1.6238713e-01
1.9663687e-01
2.1823922e-01
2.2580046e-01
2.1862682e-01
1.9679411e-01
1.6119132e-01
1.1352957e-01
5.6307558e-02
-7.2747564e-03
-7.3459758e-02
-1.3813466e-01
-1.9708718e-01
-2.4629886e-01
-2.8225055e-01
-3.0220797e-01
-3.0445621e-01
-2.8845700e-01
-2.5491071e-01
-2.0571282e-01
-1.4380518e-01
-7.2934602e-02
2.6562533e-03
7.8572441e-02
1.5060783e-01
2.1504770e-01
2.6890165e-01
3.1004493e-01
3.3726145e-01
3.5019813e-01
3.4925413e-01
3.3543435e-01
3.1019525e-01
2.7530543e-01
2.3273451e-01
1.8457384e-01
1.3298157e-01
8.0137182e-02
2.8189648e-02
-2.0810822e-02
-6.4998653e-02
-1.0279020e-01
-1.3298144e-01
-1.5483256e-01
-1.6812532e-01
-1.7318203e-01
-1.7083953e-01
-1.6237825e-01
-1.4941173e-01
-1.3374701e-01
-1.1722912e-01
-1.0158586e-01
-8.8289002e-02
-7.8445467e-02
-7.2727527e-02
-7.1346348e-02
-7.4069303e-02
-8.0277092e-02
-8.9051334e-02
-9.9278075e-02
-1.0975023e-01
-1.1925402e-01
-1.2663039e-01
-1.3080980e-01
-1.3082565e-01
-1.2581643e-01
-1.1502915e-01
-9.7835664e-02
-7.3768964e-02
-4.2580414e-02
-4.3130394e-03
4.0617458e-02
9.1344405e-02
1.4648677e-01
2.0411429e-01
2.6175482e-01
3.1645599e-01
3.6490852e-01
4.0363187e-01
4.2921454e-01
4.3859287e-01
4.2934443e-01
3.9996623e-01
3.5010560e-01
2.8071391e-01
1.9409965e-01
9.3866745e-02
-1.5265332e-02
-1.2775128e-01
-2.3759800e-01
-3.3879748e-01
-4.2577259e-01
-4.9379226e-01
-5.3931690e-01
-5.6024381e-01
-5.5603269e-01
-5.2770333e-01
-4.7770889e-01
-4.0969870e-01
-3.2819357e-01
-2.3820371e-01
-1.4482508e-01
-5.2852646e-02
3.3551156e-02
1.1110133e-01
1.7752803e-01
2.3160097e-01
2.7304759e-01
3.0238326e-01
3.2068133e-01
3.2931785e-01
3.2972850e-01
3.2321065e-01
3.1079307e-01
2.9318396e-01
2.7079485e-01
2.4382749e-01
2.1240257e-01
1.7670609e-01
1.3713037e-01
9.4390474e-02
4.9599597e-02
4.2894580e-03
-3.9634443e-02
-8.0004221e-02
-1.1455850e-01
-1.4115064e-01
-1.5797331e-01
-1.6377378e-01
-1.5803399e-01
-1.4109023e-01
-1.1417279e-01
-7.9356582e-02
-3.9425894e-02
2.3312626e-03
4.2375987e-02
7.7191294e-02
1.0354790e-01
1.1874021e-01
1.2077632e-01
1.0851237e-01
8.1726891e-02
4.1135894e-02
-1.1646632e-02
-7.4196103e-02
-1.4340644e-01
-2.1565563e-01
-2.8700160e-01
-3.5340015e-01
-4.1093404e-01
-4.5604022e-01
-4.8571911e-01
-4.9770792e-01
-4.9060119e-01
-4.6390716e-01
-4.1803762e-01
-3.5423773e-01
-2.7447010e-01
-1.8127213e-01
-7.7607403e-02
3.3269954e-02
1.4792579e-01
2.6282850e-01
3.7440974e-01
4.7911458e-01
5.7345429e-01
6.5407435e-01
7.1784743e-01
7.6199533e-01
7.8423567e-01
7.8294069e-01
7.5728977e-01
7.0739542e-01
6.3438401e-01
5.4041602e-01
4.2863522e-01
3.0304289e-01
1.6830286e-01
2.9494371e-02
-1.0816030e-01
-2.3956343e-01
-3.5997996e-01
-4.6523163e-01
-5.5184266e-01
-6.1714091e-01
-6.5932150e-01
-6.7748100e-01
-6.7162797e-01
-6.4267329e-01
-5.9240054e-01
-5.2341374e-01
-4.3905757e-01
-3.4330475e-01
-2.4060847e-01
-1.3572181e-01
-3.3490743e-02
6.1370409e-02
1.4451046e-01
2.1216861e-01
2.6138513e-01
2.9018296e-01
2.9770796e-01
2.8431615e-01
2.5159666e-01
2.0231947e-01
1.4029929e-01
7.0173945e-02
-2.8933820e-03
-7.3566679e-02
-1.3671436e-01
-1.8777737e-01
-2.2309590e-01
-2.4016817e-01
-2.3782237e-01
-2.1629022e-01
-1.7717788e-01
-1.2333637e-01
-5.8639652e-02
1.2315410e-02
8.4566849e-02
1.5317620e-01
2.1361556e-01
2.6211856e-01
2.9596246e-01
3.1365443e-01
3.1500458e-01
3.0108001e-01
2.7404720e-01
2.3692197e-01
1.9325519e-01
1.4678795e-01
1.0111053e-01
5.9358248e-02
2.3971813e-02
-3.4582836e-03
-2.2254337e-02
-3.2622363e-02
-3.5541858e-02
-3.2592362e-02
-2.5740153e-02
-1.7110423e-02
-8.7684689e-03
-2.5288070e-03
1.9407892e-04
-1.5161625e-03
-8.0365996e-03
-1.9221232e-02
-3.4467104e-02
-5.2815197e-02
-7.3067907e-02
-9.3907889e-02
-1.1400859e-01
-1.3213041e-01
-1.4719724e-01
-1.5834934e-01
-1.6497143e-01
-1.6669885e-01
-1.6340620e-01
-1.5518345e-01
-1.4230537e-01
-1.2520103e-01
-1.0442943e-01
-8.0664412e-02
-5.4688463e-02
-2.7391384e-02
2.3234375e-04
2.7095100e-02
5.2044511e-02
7.3915194e-02
9.1605653e-02
1.0417427e-01
1.1094031e-01
1.1157209e-01
1.0614649e-01
9.5169423e-02
7.9553106e-02
6.0550717e-02
3.9654782e-02
1.8470756e-02
-1.4189449e-03
-1.8585167e-02
-3.1864163e-02
-4.0442831e-02
-4.3910743e-02
-4.2274995e-02
-3.5937401e-02
-2.5638195e-02
-1.2375010e-02
2.6913962e-03
1.8334229e-02
3.3354086e-02
4.6665883e-02
5.7376880e-02
6.4851277e-02
6.8754725e-02
6.9071775e-02
6.6091394e-02
6.0360306e-02
5.2609617e-02
4.3664877e-02
3.4351520e-02
2.5406863e-02
1.7408352e-02
1.0726527e-02
5.5090271e-03
1.6974161e-03
-9.2771355e-04
-2.6831647e-03
-3.9135972e-03
-4.9290006e-03
-5.9612956e-03
-7.1492763e-03
-8.5547756e-03
-1.0203865e-02
-1.2138609e-02
-1.4461481e-02
-1.7357383e-02
-2.1085370e-02
-2.5940557e-02
-3.2194138e-02
-4.0024635e-02
-4.9455271e-02
-6.0310368e-02
-7.2198800e-02
-8.4526467e-02
-9.6534466e-02
-1.0735635e-01
-1.1608650e-01
-1.2185160e-01
-1.2387800e-01
-1.2154954e-01
-1.1445129e-01
-1.0239589e-01
-8.5430143e-02
-6.3822097e-02
-3.8033097e-02
-8.6830856e-03
2.3481980e-02
5.7615168e-02
9.2786258e-02
1.2799574e-01
1.6218846e-01
1.9426804e-01
2.2311156e-01
2.4758402e-01
2.6655369e-01
2.7891123e-01
2.8359781e-01
2.7964855e-01
2.6625617e-01
2.4285534e-01
2.0922025e-01
1.6556023e-01
1.1259554e-01
5.1597615e-02
-1.5615636e-02
-8.6733535e-02
-1.5905361e-01
-2.2962132e-01
-2.9539321e-01
-3.5340561e-01
-4.0093365e-01
-4.3563029e-01
-4.5563931e-01
-4.5967840e-01
-4.4709227e-01
-4.1787855e-01
-3.7269167e-01
-3.1282815e-01
-2.4019511e-01
-1.5726178e-01
-6.6993758e-02
2.7231535e-02
1.2173180e-01
2.1265458e-01
2.9614321e-01
3.6853135e-01
4.2655472e-01
4.6756180e-01
4.8970162e-01
4.9206798e-01
4.7478218e-01
4.3900294e-01
3.8685978e-01
3.2131529e-01
2.4596832e-01
1.6481473e-01
8.1984360e-02
1.4738668e-03
-7.3103789e-02
-1.3873314e-01
-1.9315563e-01
-2.3496248e-01
-2.6361550e-01
-2.7939801e-01
-2.8330441e-01
-2.7688306e-01
-2.6205086e-01
-2.4089907e-01
-2.1550867e-01
-1.8779101e-01
-1.5936669e-01
-1.3149125e-01
-1.0503015e-01
-8.0478820e-02
-5.8018493e-02
-3.7596153e-02
-1.9015449e-02
-2.0248028e-03
1.3610603e-02
2.8062650e-02
4.1422869e-02
5.3709049e-02
6.4885954e-02
7.4889420e-02
8.3645768e-02
9.1082743e-02
9.7132641e-02
1.0173205e-01
1.0482430e-01
1.0636883e-01
1.0635702e-01
1.0482957e-01
1.0188866e-01
9.7699950e-02
9.2481577e-02
8.6480285e-02
7.9937633e-02
7.3052221e-02
6.5945305e-02
5.8636730e-02
5.1036111e-02
4.2950996e-02
3.4110463e-02
2.4200291e-02
1.2904814e-02
-4.9904566e-05
-1.4856759e-02
-3.1595945e-02
-5.0212503e-02
-7.0503284e-02
-9.2113708e-02
-1.1454491e-01
-1.3717095e-01
-1.5926477e-01
-1.8003048e-01
-1.9863935e-01
-2.1426533e-01
-2.2611668e-01
-2.3346217e-01
-2.3565294e-01
-2.3214261e-01
-2.2250855e-01
-2.0647478e-01
-1.8393496e-01
-1.5497195e-01
-1.1987050e-01
-7.9121318e-02
-3.3416480e-02
1.6362714e-02
6.9164182e-02
1.2378939e-01
1.7892459e-01
2.3318112e-01
2.8514647e-01
3.3344515e-01
3.7680413e-01
4.1411445e-01
4.4447937e-01
4.6724214e-01
4.8199012e-01
4.8853547e-01
4.8687538e-01
4.7713662e-01
4.5951181e-01
4.3419589e-01
4.0133093e-01
3.6096511e-01
3.1303025e-01
2.5734059e-01
1.9361483e-01
1.2152095e-01
4.0740867e-02
-4.8949094e-02
-1.4758506e-01
-2.5491053e-01
-3.7025954e-01
-4.9243084e-01
-6.1956274e-01
-7.4902407e-01
-8.7734128e-01
-1.0001820e+00
-1.1124121e+00
-1.2082380e+00
-1.2814374e+00
-1.3256715e+00
-1.3348633e+00
-1.3036200e+00
-1.2276732e+00
-1.1043090e+00
-9.3275817e-01
-7.1451563e-01
-4.5355852e-01
-1.5643444e-01
1.6780324e-01
5.0783223e-01
8.5048142e-01
1.1813327e+00
1.4854836e+00
1.7484256e+00
1.9569716e+00
2.1001549e+00
2.1700180e+00
2.1622243e+00
2.0764335e+00
1.9164031e+00
1.6897978e+00
1.4077133e+00
1.0839456e+00
7.3406190e-01
3.7434927e-01
2.0732502e-02
-3.1224473e-01
-6.1228556e-01
-8.6997892e-01
-1.0791610e+00
-1.2369777e+00
-1.3436598e+00
-1.4020545e+00
-1.4169835e+00
-1.3945120e+00
-1.3412162e+00
-1.2635261e+00
-1.1672061e+00
-1.0570160e+00
-9.3657106e-01
-8.0839792e-01
-6.7415610e-01
-5.3497807e-01
-3.9186284e-01
-2.4605404e-01
-9.9337578e-02
4.5789510e-02
1.8610415e-01
3.1779449e-01
4.3672348e-01
5.3877606e-01
6.2023915e-01
6.7816446e-01
7.1067035e-01
7.1715071e-01
6.9837095e-01
6.5644280e-01
5.9467979e-01
5.1734545e-01
4.2931775e-01
3.3570253e-01
2.4143513e-01
1.5091028e-01
6.7676580e-02
-5.7759879e-03
-6.8118171e-02
-1.1916740e-01
-1.5976363e-01
-1.9155105e-01
-2.1668888e-01
-2.3751905e-01
-2.5622207e-01
-2.7449486e-01
-2.9328453e-01
-3.1260797e-01
-3.3147872e-01
-3.4795174e-01
-3.5928448e-01
-3.6220120e-01
-3.5323695e-01
-3.2912881e-01
-2.8721728e-01
-2.2581967e-01
-1.4453924e-01
-4.4477626e-02
7.1675577e-02
1.9969178e-01
3.3399197e-01
4.6796031e-01
5.9435536e-01
7.0578524e-01
7.9521247e-01
8.5645572e-01
8.8465625e-01
8.7667686e-01
8.3140254e-01
7.4991489e-01
6.3551644e-01
4.9358824e-01
3.3127648e-01
1.5702320e-01
-2.0024256e-02
-1.9067322e-01
-3.4635548e-01
-4.7974567e-01
-5.8527293e-01
-6.5947953e-01
-7.0119456e-01
-7.1150869e-01
-6.9355685e-01
-6.5213443e-01
-5.9318824e-01
-5.2323501e-01
-4.4876839e-01
-3.7571602e-01
-3.0900052e-01
-2.5224047e-01
-2.0760644e-01
-1.7582629e-01
-1.5631924e-01
-1.4742779e-01
-1.4671128e-01
-1.5126334e-01
-1.5801981e-01
-1.6403310e-01
-1.6669931e-01
-1.6393196e-01
-1.5427987e-01
-1.3698754e-01
-1.1199867e-01
-7.9906228e-02
-4.1855401e-02
5.9244744e-04
4.5625207e-02
9.1362828e-02
1.3604311e-01
1.7819436e-01
2.1677810e-01
2.5128587e-01
2.8177615e-01
3.0884260e-01
3.3351237e-01
3.5708341e-01
3.8091814e-01
4.0621639e-01
4.3378967e-01
4.6385698e-01
4.9588106e-01
5.2846450e-01
5.5932467e-01
5.8536394e-01
6.0284549e-01
6.0767624e-01
5.9578465e-01
5.6356447e-01
5.0833894e-01
4.2878798e-01
3.2527934e-01
2.0005310e-01
5.7227229e-02
-9.7386171e-02
-2.5664184e-01
-4.1256760e-01
-5.5696643e-01
-6.8205277e-01
-7.8105735e-01
-8.4874136e-01
-8.8177568e-01
-8.7895970e-01
-8.4127232e-01
-7.7176263e-01
-6.7529778e-01
-5.5819418e-01
-4.2776490e-01
-2.9182059e-01
-1.5816027e-01
-3.4083326e-02
7.4050787e-02
1.6119206e-01
2.2387784e-01
2.6040276e-01
2.7087124e-01
2.5713118e-01
2.2259386e-01
1.7195071e-01
1.1080302e-01
4.5228232e-02
-1.8686491e-02
-7.5306323e-02
-1.1986573e-01
-1.4880123e-01
-1.5996834e-01
-1.5272487e-01
-1.2787996e-01
-8.7525269e-02
-3.4777167e-02
2.6535823e-02
9.2206675e-02
1.5797587e-01
2.1982692e-01
2.7423384e-01
3.1834783e-01
3.5011521e-01
3.6832487e-01
3.7258988e-01
3.6327454e-01
3.4138369e-01
3.0843308e-01
2.6631779e-01
2.1719077e-01
1.6335666e-01
1.0718054e-01
5.1007430e-02
-2.9128744e-03
-5.2500722e-02
-9.5924536e-02
-1.3168081e-01
-1.5867005e-01
-1.7625865e-01
-1.8431623e-01
-1.8322093e-01
-1.7382953e-01
-1.5741286e-01
-1.3555974e-01
-1.1005648e-01
-8.2752757e-02
-5.5427805e-02
-2.9670405e-02
-6.7842940e-03
1.2272864e-02
2.6912585e-02
3.6901675e-02
4.2318060e-02
4.3487224e-02
4.0910765e-02
3.5196065e-02
2.6992700e-02
1.6939199e-02
5.6235120e-03
-6.4392960e-03
-1.8810154e-02
-3.1111040e-02
-4.2996168e-02
-5.4115390e-02
-6.4077094e-02
-7.2418837e-02
-7.8593435e-02
-8.1975951e-02
-8.1894145e-02
-7.7682843e-02
-6.8760930e-02
-5.4727028e-02
-3.5465803e-02
-1.1252179e-02
1.7162597e-02
4.8498940e-02
8.0943298e-02
1.1219590e-01
1.3957373e-01
1.6016599e-01
1.7103523e-01
1.6945266e-01
1.5315180e-01
1.2058089e-01
7.1132631e-02
5.3300356e-03
-7.5051705e-02
-1.6694404e-01
-2.6603687e-01
-3.6692915e-01
-4.6337684e-01
-5.4862889e-01
-6.1583534e-01
-6.5850411e-01
-6.7097697e-01
-6.4888953e-01
-5.8957896e-01
-4.9240452e-01
-3.5894938e-01
-1.9307926e-01
-8.4416857e-04
2.0977451e-01
4.2925416e-01
6.4702834e-01
8.5205597e-01
1.0334263e+00
1.1809673e+00
1.2858283e+00
1.3410079e+00
1.3418022e+00
1.2861465e+00
1.1748283e+00
1.0115525e+00
8.0284133e-01
5.5776013e-01
2.8747004e-01
4.6227552e-03
-2.7737069e-01
-5.4515022e-01
-7.8623733e-01
-9.8981968e-01
-1.1474238e+00
-1.2534167e+00
-1.3052915e+00
-1.3037121e+00
-1.2523170e+00
-1.1573031e+00
-1.0268366e+00
-8.7034625e-01
-6.9776631e-01
-5.1879660e-01
-3.4224120e-01
-1.7548014e-01
-2.4114156e-02
1.0819563e-01
2.1969423e-01
3.1032917e-01
3.8141797e-01
4.3523810e-01
4.7459345e-01
5.0240711e-01
5.2138021e-01
5.3374288e-01
5.4110869e-01
5.4443012e-01
5.4403960e-01
5.3974930e-01
5.3097730e-01
5.1687072e-01
4.9640798e-01
4.6847766e-01
4.3194308e-01
3.8570816e-01
3.2880076e-01
2.6048591e-01
1.8041268e-01
8.8786097e-02
-1.3456287e-02
-1.2449142e-01
-2.4150978e-01
-3.6069119e-01
-4.7727548e-01
-5.8573851e-01
-6.8007426e-01
-7.5417262e-01
-8.0227054e-01
-8.1944390e-01
-8.0209876e-01
-7.4841615e-01
-6.5870260e-01
-5.3559995e-01
-3.8411344e-01
-2.1143095e-01
-2.6527300e-02
1.6042665e-01
3.3880452e-01
4.9834599e-01
6.2997447e-01
7.2652067e-01
7.8327145e-01
7.9828615e-01
7.7245423e-01
7.0930049e-01
6.1457283e-01
4.9566870e-01
3.6096977e-01
2.1915745e-01
7.8576593e-02
-5.3299600e-02
-1.7026886e-01
-2.6764844e-01
-3.4237455e-01
-3.9296746e-01
-4.1938705e-01
-4.2281043e-01
-4.0536596e-01
-3.6985590e-01
-3.1949521e-01
-2.5768799e-01
-1.8785698e-01
-1.1333217e-01
-3.7294892e-02
3.7237426e-02
1.0740689e-01
1.7051499e-01
2.2404710e-01
2.6573475e-01
2.9365775e-01
3.0637599e-01
3.0307108e-01
2.8367304e-01
2.4894678e-01
2.0051753e-01
1.4082098e-01
7.2974562e-02
5.7760833e-04
-7.2540200e-02
-1.4259422e-01
-2.0611344e-01
-2.6017472e-01
-3.0258210e-01
-3.3197842e-01
-3.4788440e-01
-3.5066680e-01
-3.4144339e-01
-3.2193614e-01
-2.9428660e-01
-2.6084872e-01
-2.2397585e-01
-1.8582068e-01
-1.4816669e-01
-1.1230777e-01
-7.8987931e-02
-4.8406789e-02
-2.0289256e-02
5.9896462e-03
3.1240672e-02
5.6278194e-02
8.1744784e-02
1.0796809e-01
1.3487215e-01
1.6195691e-01
1.8834816e-01
2.1290766e-01
2.3438338e-01
2.5157370e-01
2.6347931e-01
2.6942061e-01
2.6910600e-01
2.6264557e-01
2.5051319e-01
2.3346814e-01
2.1245349e-01
1.8849136e-01
1.6259416e-01
1.3570598e-01
1.0868059e-01
8.2292633e-02
5.7269785e-02
3.4327447e-02
1.4187366e-02
-2.4330587e-03
-1.4864777e-02
-2.2558823e-02
-2.5173430e-02
-2.2661091e-02
-1.5339884e-02
-3.9350883e-03
1.0419097e-02
2.6222446e-02
4.1695368e-02
5.4904085e-02
6.3915583e-02
6.6969903e-02
6.2653387e-02
5.0053494e-02
2.8875268e-02
-4.9809119e-04
-3.7013238e-02
-7.9029297e-02
-1.2447259e-01
-1.7105061e-01
-2.1650099e-01
-2.5884242e-01
-2.9659092e-01
-3.2890931e-01
-3.5566711e-01
-3.7739964e-01
-3.9516734e-01
-4.1032880e-01
-4.2425292e-01
-4.3800542e-01
-4.5204971e-01
-4.6600243e-01
-4.7848016e-01
-4.8706641e-01
-4.8841626e-01
-4.7850010e-01
-4.5297089e-01
-4.0762394e-01
-3.3890649e-01
-2.4442653e-01
-1.2340708e-01
2.2967004e-02
1.9135564e-01
3.7625681e-01
5.7020171e-01
7.6414562e-01
9.4802694e-01
1.1114461e+00
1.2444019e+00
1.3380189e+00
1.3852036e+00
1.3811797e+00
1.3238659e+00
1.2140719e+00
1.0555003e+00
8.5455356e-01
6.1996083e-01
3.6224834e-01
9.3093744e-02
-1.7538890e-01
-4.3137846e-01
-6.6403274e-01
-8.6407683e-01
-1.0242503e+00
-1.1395879e+00
-1.2075285e+00
-1.2278642e+00
-1.2025554e+00
-1.1354456e+00
-1.0319100e+00
-8.9847408e-01
-7.4242231e-01
-5.7141755e-01
-3.9314004e-01
-2.1495922e-01
-4.3651432e-02
1.1482381e-01
2.5548132e-01
3.7440045e-01
4.6875417e-01
5.3678979e-01
5.7777889e-01
5.9195578e-01
5.8046026e-01
5.4529316e-01
4.8928178e-01
4.1604156e-01
3.2991258e-01
2.3584895e-01
1.3924355e-01
4.5680604e-02
-3.9378917e-02
-1.1096029e-01
-1.6495649e-01
-1.9849152e-01
-2.1022687e-01
-2.0057323e-01
-1.7177173e-01
-1.2781591e-01
-7.4197623e-02
-1.7478709e-02
3.5287454e-02
7.7239173e-02
1.0243032e-01
1.0651763e-01
8.7328689e-02
4.5233103e-02
-1.6742800e-02
-9.3087991e-02
-1.7626084e-01
-2.5738627e-01
-3.2712841e-01
-3.7665032e-01
-3.9856111e-01
-3.8774995e-01
-3.4201726e-01
-2.6243293e-01
-1.5337768e-01
-2.2254053e-02
1.2111374e-01
2.6533899e-01
3.9850935e-01
5.0929885e-01
5.8804170e-01
6.2765600e-01
6.2432152e-01
5.7784356e-01
4.9166977e-01
3.7256281e-01
2.2996579e-01
7.5127337e-02
-7.9922497e-02
-2.2343946e-01
-3.4496644e-01
-4.3617148e-01
-4.9144853e-01
-5.0823761e-01
-4.8705222e-01
-4.3123234e-01
-3.4646768e-01
-2.4015737e-01
-1.2068479e-01
3.3130847e-03
1.2361202e-01
2.3294893e-01
3.2541700e-01
3.9669067e-01
4.4408363e-01
4.6646314e-01
4.6405960e-01
4.3821824e-01
3.9113755e-01
3.2562991e-01
2.4492583e-01
1.5252777e-01
5.2105417e-02
-5.2584238e-02
-1.5776931e-01
-2.5974068e-01
-3.5494256e-01
-4.4007977e-01
-5.1224081e-01
-5.6902827e-01
-6.0867956e-01
-6.3015680e-01
-6.3318670e-01
-6.1823806e-01
-5.8643350e-01
-5.3940167e-01
-4.7908549e-01
-4.0752929e-01
-3.2667247e-01
-2.3817879e-01
-1.4332769e-01
-4.2987781e-02
6.2316224e-02
1.7224325e-01
2.8639653e-01
4.0403529e-01
5.2378096e-01
6.4336744e-01
7.5948346e-01
8.6774409e-01
9.6281226e-01
1.0386694e+00
1.0890115e+00
1.1077308e+00
1.0894320e+00
1.0299387e+00
9.2674997e-01
7.7941807e-01
5.8982438e-01
3.6233122e-01
1.0379147e-01
-1.7659800e-01
-4.6760478e-01
-7.5642507e-01
-1.0292847e+00
-1.2721471e+00
-1.4714931e+00
-1.6151361e+00
-1.6930353e+00
-1.6980678e+00
-1.6267115e+00
-1.4795760e+00
-1.2617181e+00
-9.8267266e-01
-6.5615516e-01
-2.9941280e-01
6.7762868e-02
4.2431376e-01
7.4939785e-01
1.0239575e+00
1.2322301e+00
1.3630474e+00
1.4107815e+00
1.3758237e+00
1.2645296e+00
1.0886221e+00
8.6410911e-01
6.0982693e-01
3.4576861e-01
9.1376745e-02
-1.3602230e-01
-3.2249073e-01
-4.5834930e-01
-5.3859077e-01
-5.6284197e-01
-5.3493085e-01
-4.6214986e-01
-3.5432274e-01
-2.2278158e-01
-7.9352085e-02
6.4569435e-02
1.9878242e-01
3.1484734e-01
4.0642797e-01
4.6941078e-01
5.0182355e-01
5.0359506e-01
4.7621216e-01
4.2233601e-01
3.4543255e-01
2.4945682e-01
1.3861137e-01
1.7180839e-02
-1.1056860e-01
-2.4044420e-01
-3.6835737e-01
-4.9034719e-01
-6.0260753e-01
-7.0152234e-01
-7.8371078e-01
-8.4608226e-01
-8.8590137e-01
-9.0086236e-01
-8.8917349e-01
-8.4965164e-01
-7.8182756e-01
-6.8605979e-01
-5.6365125e-01
-4.1695714e-01
-2.4946730e-01
-6.5841913e-02
1.2812271e-01
3.2561845e-01
5.1905403e-01
7.0039107e-01
8.6157532e-01
9.9503357e-01
1.0941920e+00
1.1539624e+00
1.1711426e+00
1.1446852e+00
1.0758036e+00
9.6790516e-01
8.2635669e-01
6.5810912e-01
4.7121617e-01
2.7429340e-01
7.5966557e-02
-1.1564309e-01
-2.9335567e-01
-4.5126210e-01
-5.8492934e-01
-6.9147743e-01
-7.6953613e-01
-8.1909988e-01
-8.4130766e-01
-8.3817777e-01
-8.1232667e-01
-7.6669826e-01
-7.0432598e-01
-6.2814556e-01
-5.4087014e-01
-4.4493230e-01
-3.4248953e-01
-2.3548167e-01
-1.2572303e-01
-1.5008448e-02
9.4787479e-02
2.0163731e-01
3.0332816e-01
3.9747725e-01
4.8159573e-01
5.5319500e-01
6.0992725e-01
6.4974986e-01
6.7110025e-01
6.7306440e-01
6.5551883e-01
6.1922625e-01
5.6586767e-01
4.9799964e-01
4.1893245e-01
3.3253349e-01
2.4296894e-01
1.5440377e-01
7.0684807e-02
-4.9667531e-03
-7.0224884e-02
-1.2385967e-01
-1.6583935e-01
-1.9731118e-01
-2.2045419e-01
-2.3821579e-01
-2.5396107e-01
-2.7107546e-01
-2.9256835e-01
-3.2072565e-01
-3.5685265e-01
-4.0113418e-01
-4.5262114e-01
-5.0933493e-01
-5.6846792e-01
-6.2664925e-01
-6.8024084e-01
-7.2562844e-01
-7.5947619e-01
-7.7892101e-01
-7.8169036e-01
-7.6613563e-01
-7.3118330e-01
-6.7621993e-01
-6.0094230e-01
-5.0521592e-01
-3.8898931e-01
-2.5230363e-01
-9.5418496e-02
8.0951741e-02
2.7532408e-01
4.8510917e-01
7.0631403e-01
9.3334782e-01
1.1589822e+00
1.3744982e+00
1.5700298e+00
1.7350917e+00
1.8592575e+00
1.9329410e+00
1.9482139e+00
1.8995855e+00
1.7846603e+00
1.6045943e+00
1.3642831e+00
1.0722421e+00
7.4016488e-01
3.8218571e-01
1.3900737e-02
-3.4876610e-01
-6.9074377e-01
-9.9891873e-01
-1.2630396e+00
-1.4763171e+00
-1.6356534e+00
-1.7414878e+00
-1.7972970e+00
-1.8088286e+00
-1.7831736e+00
-1.7277928e+00
-1.6496128e+00
-1.5542904e+00
-1.4457243e+00
-1.3258586e+00
-1.1947910e+00
-1.0511612e+00
-8.9276376e-01
-7.1730419e-01
-5.2319626e-01
-3.1029665e-01
-8.0477238e-02
1.6204616e-01
4.1068350e-01
6.5675904e-01
8.9009922e-01
1.0998607e+00
1.2755060e+00
1.4078132e+00
1.4898022e+00
1.5174721e+00
1.4902664e+00
1.4112180e+00
1.2867576e+00
1.1262048e+00
9.4099425e-01
7.4371346e-01
5.4705082e-01
3.6275849e-01
2.0073413e-01
6.8308879e-02
-3.0197006e-02
-9.3622239e-02
-1.2382163e-01
-1.2526795e-01
-1.0445784e-01
-6.9195559e-02
-2.7831941e-02
1.1470206e-02
4.1386130e-02
5.5952345e-02
5.0937633e-02
2.4053195e-02
-2.4991718e-02
-9.4572211e-02
-1.8134771e-01
-2.8055973e-01
-3.8640891e-01
-4.9249191e-01
-5.9227519e-01
-6.7957785e-01
-7.4903087e-01
-7.9647516e-01
-8.1925995e-01
-8.1640845e-01
-7.8863114e-01
-7.3818658e-01
-6.6860960e-01
-5.8434269e-01
-4.9031367e-01
-3.9150420e-01
-2.9254878e-01
-1.9739684e-01
-1.0906286e-01
-2.9479912e-02
4.0537313e-02
1.0122341e-01
1.5369865e-01
1.9972844e-01
2.4142916e-01
2.8094941e-01
3.2016101e-01
3.6039448e-01
4.0224995e-01
4.4550454e-01
4.8912612e-01
5.3138935e-01
5.7007607e-01
6.0273014e-01
6.2693038e-01
6.4054493e-01
6.4193503e-01
6.3008564e-01
6.0465262e-01
5.6593073e-01
5.1475999e-01
4.5239724e-01
3.8038043e-01
3.0040906e-01
2.1425676e-01
1.2372521e-01
3.0639124e-02
-6.3128587e-02
-1.5561981e-01
-2.4476255e-01
-3.2836644e-01
-4.0415298e-01
-4.6982586e-01
-5.2318123e-01
-5.6225115e-01
-5.8546635e-01
-5.9181943e-01
-5.8100781e-01
-5.5353837e-01
-5.1078013e-01
-4.5495661e-01
-3.8907288e-01
-3.1677717e-01
-2.4216184e-01
-1.6951443e-01
-1.0303450e-01
-4.6536406e-02
-3.1616933e-03
2.4873199e-02
3.6469271e-02
3.1756585e-02
1.2110874e-02
-1.9930331e-02
-6.0846930e-02
-1.0639475e-01
-1.5191812e-01
-1.9268609e-01
-2.2422142e-01
-2.4259577e-01
-2.4467092e-01
-2.2827255e-01
-1.9229041e-01
-1.3670628e-01
-6.2559107e-02
2.8138814e-02
1.3251867e-01
2.4699067e-01
3.6738681e-01
4.8910377e-01
6.0724405e-01
7.1675894e-01
8.1259946e-01
8.8988198e-01
9.4407314e-01
9.7119679e-01
9.6806162e-01
9.3250189e-01
8.6361488e-01
7.6197080e-01
6.2976509e-01
4.7088204e-01
2.9084188e-01
9.6612294e-02
-1.0372051e-01
-3.0140523e-01
-4.8756624e-01
-6.5377776e-01
-7.9261293e-01
-8.9811673e-01
-9.6616660e-01
-9.9470109e-01
-9.8381107e-01
-9.3569867e-01
-8.5451691e-01
-7.4610557e-01
-6.1763953e-01
-4.7720531e-01
-3.3332457e-01
-1.9444740e-01
-6.8442352e-02
3.7887346e-02
1.1923042e-01
1.7210535e-01
1.9508014e-01
1.8885333e-01
1.5618825e-01
1.0170637e-01
3.1555188e-02
-4.7028166e-02
-1.2623189e-01
-1.9823230e-01
-2.5576792e-01
-2.9268327e-01
-3.0439843e-01
-2.8826128e-01
-2.4374591e-01
-1.7247394e-01
-7.8053841e-02
3.4245214e-02
1.5795088e-01
2.8593029e-01
4.1096575e-01
5.2630907e-01
6.2616079e-01
7.0602808e-01
7.6292997e-01
7.9543957e-01
8.0357472e-01
7.8856711e-01
7.5255277e-01
6.9823375e-01
6.2856029e-01
5.4647331e-01
4.5473167e-01
3.5583063e-01
2.5200435e-01
1.4529592e-01
3.7672817e-02
-6.8839915e-02
-1.7204104e-01
-2.6948247e-01
-3.5847353e-01
-4.3617425e-01
-4.9977517e-01
-5.4674509e-01
-5.7511586e-01
-5.8376563e-01
-5.7265989e-01
-5.4301159e-01
-4.9732990e-01
-4.3934022e-01
-3.7377493e-01
-3.0605029e-01
-2.4185830e-01
-1.8671136e-01
-1.4548093e-01
-1.2197025e-01
-1.1855586e-01
-1.3592557e-01
-1.7293378e-01
-2.2658721e-01
-2.9216724e-01
-3.6348609e-01
-4.3326582e-01
-4.9361886e-01
-5.3660055e-01
-5.5479656e-01
-5.4190432e-01
-4.9326773e-01
-4.0632849e-01
-2.8096312e-01
-1.1968041e-01
7.2340761e-02
2.8738609e-01
5.1551596e-01
7.4504327e-01
9.6316159e-01
1.1566968e+00
1.3129464e+00
1.4205609e+00
1.4704118e+00
1.4563818e+00
1.3760071e+00
1.2308997e+00
1.0268818e+00
7.7378211e-01
4.8487304e-01
1.7596799e-01
-1.3575339e-01
-4.3307811e-01
-7.0010367e-01
-9.2343789e-01
-1.0931207e+00
-1.2031775e+00
-1.2517680e+00
-1.2409456e+00
-1.1760878e+00
-1.0650920e+00
-9.1745084e-01
-7.4332757e-01
-5.5273497e-01
-3.5489404e-01
-1.5781341e-01
3.1901863e-02
2.0903287e-01
3.6956435e-01
5.1039737e-01
6.2902373e-01
7.2322621e-01
7.9085797e-01
8.2973999e-01
8.3769785e-01
8.1273985e-01
7.5335928e-01
6.5892521e-01
5.3011242e-01
3.6931126e-01
1.8095466e-01
-2.8299160e-02
-2.4958152e-01
-4.7206513e-01
-6.8346971e-01
-8.7080902e-01
-1.0213342e+00
-1.1235969e+00
-1.1685279e+00
-1.1504129e+00
-1.0676393e+00
-9.2310977e-01
-7.2424650e-01
-4.8256630e-01
-2.1285553e-01
6.7973033e-02
3.4222445e-01
5.9282829e-01
8.0466593e-01
9.6569011e-01
1.0677367e+00
1.1069671e+00
1.0839219e+00
1.0032101e+00
8.7289254e-01
7.0364511e-01
5.0779721e-01
2.9833788e-01
8.7969534e-02
-1.1172617e-01
-2.9096147e-01
-4.4222007e-01
-5.6052012e-01
-6.4345988e-01
-6.9105908e-01
-7.0542381e-01
-6.9027651e-01
-6.5040224e-01
-5.9106821e-01
-5.1747271e-01
-4.3427339e-01
-3.4523409e-01
-2.5301431e-01
-1.5910839e-01
-6.3925004e-02
3.3012969e-02
1.3277383e-01
2.3665437e-01
3.4577740e-01
4.6067978e-01
5.8092459e-01
7.0477342e-01
8.2895544e-01
9.4856753e-01
1.0571329e+00
1.1468346e+00
1.2089257e+00
1.2343043e+00
1.2142239e+00
1.1411010e+00
1.0093622e+00
8.1626318e-01
5.6259553e-01
2.5319485e-01
-1.0283116e-01
-4.9221681e-01
-8.9802670e-01
-1.3005118e+00
-1.6782839e+00
-2.0097180e+00
-2.2744559e+00
-2.4548717e+00
-2.5373624e+00
-2.5133550e+00
-2.3799589e+00
-2.1402317e+00
-1.8030645e+00
-1.3827174e+00
-8.9805195e-01
-3.7151310e-01
1.7208771e-01
7.0693453e-01
1.2076519e+00
1.6507571e+00
2.0160311e+00
2.2877109e+00
2.4554121e+00
2.5146982e+00
2.4672442e+00
2.3205700e+00
2.0873618e+00
1.7844340e+00
1.4314200e+00
1.0493044e+00
6.5892742e-01
2.7959694e-01
-7.2071786e-02
-3.8299809e-01
-6.4411248e-01
-8.5046454e-01
-1.0009967e+00
-1.0980450e+00
-1.1466449e+00
-1.1537242e+00
-1.1272644e+00
-1.0755007e+00
-1.0062195e+00
-9.2619741e-01
-8.4081014e-01
-7.5382576e-01
-6.6737930e-01
-5.8211279e-01
-4.9745301e-01
-4.1199071e-01
-3.2391841e-01
-2.3148032e-01
-1.3338939e-01
-2.9173992e-02
8.0572466e-02
1.9405561e-01
3.0826720e-01
4.1909875e-01
5.2157792e-01
6.1021387e-01
6.7942721e-01
7.2403106e-01
7.3972383e-01
7.2355220e-01
6.7430295e-01
5.9278635e-01
4.8198099e-01
3.4701902e-01
1.9500119e-01
3.4643177e-02
-1.2423259e-01
-2.7133095e-01
-3.9660299e-01
-4.9099802e-01
-5.4719059e-01
-5.6022362e-01
-5.2801310e-01
-4.5166797e-01
-3.3559073e-01
-1.8733815e-01
-1.7237723e-02
1.6222733e-01
3.3723464e-01
4.9359387e-01
6.1780922e-01
6.9815719e-01
7.2569531e-01
6.9511570e-01
6.0536094e-01
4.5993118e-01
2.6683035e-01
3.8129120e-02
-2.1084125e-01
-4.6260730e-01
-6.9888914e-01
-9.0203085e-01
-1.0563933e+00
-1.1495842e+00
-1.1734201e+00
-1.1245452e+00
-1.0046658e+00
-8.2039543e-01
-5.8274102e-01
-3.0628273e-01
-8.1192324e-03
2.9334135e-01
5.7965937e-01
8.3362453e-01
1.0404155e+00
1.1885796e+00
1.2707651e+00
1.2841529e+00
1.2305570e+00
1.1161848e+00
9.5107416e-01
7.4824961e-01
5.2266548e-01
2.9002112e-01
6.5544225e-02
-1.3716326e-01
-3.0713219e-01
-4.3681669e-01
-5.2261297e-01
-5.6506439e-01
-5.6872446e-01
-5.4166934e-01
-4.9468038e-01
-4.4015357e-01
-3.9082976e-01
-3.5846770e-01
-3.5259382e-01
-3.7945757e-01
-4.4130119e-01
-5.3602184e-01
-6.5726274e-01
-7.9492257e-01
-9.3602455e-01
-1.0658465e+00
-1.1691891e+00
-1.2316560e+00
-1.2408322e+00
-1.1872757e+00
-1.0652629e+00
-8.7326108e-01
-6.1412222e-01
-2.9500813e-01
7.2931397e-02
4.7510095e-01
8.9419204e-01
1.3110713e+00
1.7057844e+00
2.0586310e+00
2.3512587e+00
2.5677214e+00
2.6954383e+00
2.7259887e+00
2.6556807e+00
2.4858472e+00
2.2228358e+00
1.8776886e+00
1.4655233e+00
1.0046569e+00
5.1552757e-01
1.9493162e-02
-4.6241093e-01
-9.1066207e-01
-1.3083033e+00
-1.6417841e+00
-1.9015360e+00
-2.0822555e+00
-2.1828957e+00
-2.2063928e+00
-2.1591688e+00
-2.0504660e+00
-1.8915703e+00
-1.6949830e+00
-1.4735972e+00
-1.2399287e+00
-1.0054426e+00
-7.8001122e-01
-5.7152470e-01
-3.8566756e-01
-2.2586022e-01
-9.3354863e-02
1.2534783e-02
9.4097765e-02
1.5481761e-01
1.9892846e-01
2.3097429e-01
2.5540856e-01
2.7626740e-01
2.9694081e-01
3.2005377e-01
3.4745357e-01
3.8028295e-01
4.1910655e-01
4.6405191e-01
5.1492952e-01
5.7130612e-01
6.3251983e-01
6.9764066e-01
7.6539261e-01
8.3406209e-01
9.0142030e-01
9.6468544e-01
1.0205440e+00
1.0652412e+00
1.0947405e+00
1.1049442e+00
1.0919579e+00
1.0523815e+00
9.8360106e-01
8.8405864e-01
7.5347698e-01
5.9302224e-01
4.0539579e-01
1.9485128e-01
-3.2865587e-02
-2.7065882e-01
-5.1031029e-01
-7.4279638e-01
-9.5868915e-01
-1.1486295e+00
-1.3038524e+00
-1.4167364e+00
-1.4813472e+00
-1.4939348e+00
-1.4533387e+00
-1.3612538e+00
-1.2223100e+00
-1.0439364e+00
-8.3599338e-01
-6.1018028e-01
-3.7925049e-01
-1.5609443e-01
4.7225886e-02
2.2039331e-01
3.5560663e-01
4.4812567e-01
4.9653609e-01
5.0271432e-01
4.7150829e-01
4.1018150e-01
3.2768860e-01
2.3386114e-01
1.3858204e-01
5.1021820e-02
-2.1000600e-02
-7.1485401e-02
-9.6522386e-02
-9.4364677e-02
-6.5329315e-02
-1.1563847e-02
6.3276382e-02
1.5439728e-01
2.5624403e-01
3.6285840e-01
4.6819462e-01
5.6638308e-01
6.5194020e-01
7.1993018e-01
7.6608873e-01
7.8692023e-01
7.7977867e-01
7.4294188e-01
6.7568733e-01
5.7837600e-01
4.5254610e-01
3.0101097e-01
1.2794553e-01
-6.1066048e-02
-2.5905908e-01
-4.5783422e-01
-6.4825259e-01
-8.2069105e-01
-9.6564017e-01
-1.0743986e+00
-1.1397948e+00
-1.1568533e+00
-1.1233227e+00
-1.0399917e+00
-9.1074738e-01
-7.4235569e-01
-5.4398559e-01
-3.2652667e-01
-1.0177611e-01
1.1841837e-01
3.2297499e-01
5.0228198e-01
6.4873816e-01
7.5710196e-01
8.2464237e-01
8.5110241e-01
8.3849858e-01
7.9078844e-01
7.1344406e-01
6.1297246e-01
4.9642517e-01
3.7093649e-01
2.4332338e-01
1.1976864e-01
5.5953478e-03
-9.4871397e-02
-1.7836808e-01
-2.4269910e-01
-2.8670452e-01
-3.1020558e-01
-3.1393972e-01
-2.9949051e-01
-2.6921255e-01
-2.2614671e-01
-1.7391769e-01
-1.1660464e-01
-5.8576526e-02
-4.2873557e-03
4.1967457e-02
7.6325250e-02
9.5644845e-02
9.7787155e-02
8.1858283e-02
4.8380873e-02
-6.3968122e-04
-6.1778634e-02
-1.3039464e-01
-2.0096467e-01
-2.6752627e-01
-3.2418472e-01
-3.6562801e-01
-3.8758700e-01
-3.8718687e-01
-3.6315696e-01
-3.1589032e-01
-2.4736407e-01
-1.6094362e-01
-6.1098902e-02
4.6936141e-02
1.5752921e-01
2.6501058e-01
3.6400361e-01
4.4970491e-01
5.1810143e-01
5.6612080e-01
5.9171916e-01
5.9391617e-01
5.7278695e-01
5.2941774e-01
4.6582748e-01
3.8485540e-01
2.9001631e-01
1.8532842e-01
7.5121553e-02
-3.6164840e-02
-1.4418373e-01
-2.4487182e-01
-3.3461994e-01
-4.1041489e-01
-4.6994802e-01
-5.1168811e-01
-5.3491710e-01
-5.3972699e-01
-5.2697756e-01
-4.9821792e-01
-4.5557889e-01
-4.0164482e-01
-3.3931203e-01
-2.7163841e-01
-2.0168795e-01
-1.3237566e-01
-6.6320754e-02
-5.7184589e-03
4.7758240e-02
9.3017098e-02
1.2955993e-01
1.5745244e-01
1.7725902e-01
1.8995377e-01
1.9681810e-01
1.9933212e-01
1.9906477e-01
1.9756591e-01
1.9626253e-01
1.9636141e-01
1.9876210e-01
2.0398570e-01
2.1212607e-01
2.2282936e-01
2.3530649e-01
2.4838040e-01
2.6056628e-01
2.7017942e-01
2.7546283e-01
2.7472593e-01
2.6648661e-01
2.4960971e-01
2.2343452e-01
1.8788172e-01
1.4352693e-01
9.1627017e-02
3.4088008e-02
-2.6630127e-02
-8.7668276e-02
-1.4597118e-01
-1.9852072e-01
-2.4257764e-01
-2.7590836e-01
-2.9697524e-01
-3.0507212e-01
-3.0039214e-01
-2.8402217e-01
-2.5786453e-01
-2.2449366e-01
-1.8696012e-01
-1.4855752e-01
-1.1256990e-01
-8.2017970e-02
-5.9422933e-02
-4.6606737e-02
-4.4546864e-02
-5.3300621e-02
-7.2007823e-02
-9.8971966e-02
-1.3181019e-01
-1.6765349e-01
-2.0337296e-01
-2.3580710e-01
-2.6197088e-01
-2.7923488e-01
-2.8547037e-01
-2.7915817e-01
-2.5945951e-01
-2.2624734e-01
-1.8009832e-01
-1.2224745e-01
-5.4509359e-02
2.0828825e-02
1.0113615e-01
1.8357963e-01
2.6526870e-01
3.4339096e-01
4.1532801e-01
4.7874208e-01
5.3162675e-01
5.7231942e-01
5.9948047e-01
6.1205339e-01
6.0922631e-01
5.9041567e-01
5.5528718e-01
5.0382132e-01
4.3642117e-01
3.5404920e-01
2.5836719e-01
1.5184465e-01
3.7800337e-02
-7.9650139e-02
-1.9575322e-01
-3.0537914e-01
-4.0336653e-01
-4.8491424e-01
-5.4597387e-01
-5.8359402e-01
-5.9617526e-01
-5.8360925e-01
-5.4729084e-01
-4.9000507e-01
-4.1570198e-01
-3.2918299e-01
-2.3573100e-01
-1.4071954e-01
-4.9234735e-02
3.4261399e-02
1.0620254e-01
1.6410539e-01
2.0666019e-01
2.3372031e-01
2.4619558e-01
2.4586119e-01
2.3509945e-01
2.1659978e-01
1.9305029e-01
1.6685902e-01
1.3993914e-01
1.1358066e-01
8.8417667e-02
6.4486624e-02
4.1360874e-02
1.8337810e-02
-5.3505935e-03
-3.0334531e-02
-5.6937543e-02
-8.5062200e-02
-1.1414288e-01
-1.4317199e-01
-1.7079982e-01
-1.9550052e-01
-2.1578600e-01
-2.3043894e-01
-2.3872790e-01
-2.4056553e-01
-2.3657611e-01
-2.2805002e-01
-2.1678008e-01
-2.0479423e-01
-1.9401812e-01
-1.8591307e-01
-1.8113881e-01
-1.7928718e-01
-1.7872564e-01
-1.7657972e-01
-1.6887108e-01
-1.5081476e-01
-1.1726568e-01
-6.3289037e-02
1.5187802e-02
1.2070088e-01
2.5362304e-01
4.1165949e-01
5.8953714e-01
7.7894843e-01
9.6879193e-01
1.1457253e+00
1.2950140e+00
1.4016286e+00
1.4515113e+00
1.4329102e+00
1.3376585e+00
1.1622666e+00
9.0869752e-01
5.8472083e-01
2.0377128e-01
-2.1570856e-01
-6.5141212e-01
-1.0787126e+00
-1.4724706e+00
-1.8089331e+00
-2.0675366e+00
-2.2324386e+00
-2.2936358e+00
-2.2475787e+00
-2.0972456e+00
-1.8517056e+00
-1.5252458e+00
-1.1361811e+00
-7.0547878e-01
-2.5533078e-01
1.9221470e-01
6.1647220e-01
9.9912621e-01
1.3249896e+00
1.5825004e+00
1.7639651e+00
1.8655695e+00
1.8871909e+00
1.8320503e+00
1.7062522e+00
1.5182618e+00
1.2783676e+00
9.9816619e-01
6.9008675e-01
3.6696088e-01
4.1626478e-02
-2.7344881e-01
-5.6653892e-01
-8.2703242e-01
-1.0458026e+00
-1.2155570e+00
-1.3311379e+00
-1.3897430e+00
-1.3910360e+00
-1.3371288e+00
-1.2324279e+00
-1.0833540e+00
-8.9795410e-01
-6.8543485e-01
-4.5565186e-01
-2.1859011e-01
1.6128033e-02
2.3967408e-01
4.4435934e-01
6.2388117e-01
7.7346672e-01
8.8991948e-01
9.7157869e-01
1.0182047e+00
1.0308056e+00
1.0114205e+00
9.6287925e-01
8.8855593e-01
7.9213805e-01
6.7743030e-01
5.4820799e-01
4.0812882e-01
2.6070415e-01
1.0932222e-01
-4.2691587e-02
-1.9199799e-01
-3.3517182e-01
-4.6865328e-01
-5.8873783e-01
-6.9161695e-01
-7.7347871e-01
-8.3067073e-01
-8.5992008e-01
-8.5859639e-01
-8.2499532e-01
-7.5861213e-01
-6.6037067e-01
-5.3277471e-01
-3.7995492e-01
-2.0759600e-01
-2.2741443e-02
1.6651265e-01
3.5141134e-01
5.2298997e-01
6.7254338e-01
7.9208296e-01
8.7475636e-01
9.1521177e-01
9.0989561e-01
8.5727798e-01
7.5800461e-01
6.1497396e-01
4.3333506e-01
2.2039698e-01
-1.4561872e-02
-2.6059626e-01
-5.0551639e-01
-7.3643163e-01
-9.4040631e-01
-1.1052024e+00
-1.2200651e+00
-1.2764921e+00
-1.2689213e+00
-1.1952743e+00
-1.0573026e+00
-8.6069644e-01
-6.1493080e-01
-3.3284303e-01
-2.9955266e-02
2.7642506e-01
5.6827545e-01
8.2803299e-01
1.0397939e+00
1.1904499e+00
1.2706694e+00
1.2756397e+00
1.2054992e+00
1.0654109e+00
8.6525901e-01
6.1898223e-01
3.4359555e-01
5.7983167e-02
-2.1843235e-01
-4.6703172e-01
-6.7124325e-01
-8.1759707e-01
-8.9652043e-01
-9.0283491e-01
-8.3594786e-01
-6.9975736e-01
-5.0230880e-01
-2.5524901e-01
2.6875596e-02
3.2743288e-01
6.2859040e-01
9.1223565e-01
1.1608988e+00
1.3586486e+00
1.4919316e+00
1.5503257e+00
1.5271747e+00
1.4200717e+00
1.2311550e+00
9.6717962e-01
6.3933365e-01
2.6277243e-01
-1.4413497e-01
-5.6083127e-01
-9.6582003e-01
-1.3380555e+00
-1.6583581e+00
-1.9107222e+00
-2.0833794e+00
-2.1695109e+00
-2.1675381e+00
-2.0809818e+00
-1.9179226e+00
-1.6901442e+00
-1.4120634e+00
-1.0995646e+00
-7.6884943e-01
-4.3539552e-01
-1.1309179e-01
1.8640710e-01
4.5408898e-01
6.8375596e-01
8.7197695e-01
1.0178513e+00
1.1226255e+00
1.1892155e+00
1.2216880e+00
1.2247561e+00
1.2033301e+00
1.1621525e+00
1.1055288e+00
1.0371531e+00
9.6001905e-01
8.7640168e-01
7.8789986e-01
6.9552766e-01
5.9984645e-01
5.0112791e-01
3.9953636e-01
2.9531437e-01
1.8895284e-01
8.1325435e-02
-2.6230023e-02
-1.3189515e-01
-2.3342317e-01
-3.2825408e-01
-4.1367912e-01
-4.8703463e-01
-5.4590366e-01
-5.8830484e-01
-6.1285228e-01
-6.1887444e-01
-6.0648436e-01
-5.7659830e-01
-5.3090517e-01
-4.7179229e-01
-4.0223488e-01
-3.2565636e-01
-2.4576708e-01
-1.6638972e-01
-9.1278765e-02
-2.3939648e-02
3.2548323e-02
7.5699888e-02
1.0377408e-01
1.1589458e-01
1.1212689e-01
9.3501289e-02
6.1975545e-02
2.0335765e-02
-2.7963570e-02
-7.9016552e-02
-1.2872993e-01
-1.7311566e-01
-2.0858531e-01
-2.3221650e-01
-2.4196341e-01
-2.3678986e-01
-2.1671183e-01
-1.8274828e-01
-1.3679089e-01
-8.1413127e-02
-1.9642675e-02
4.5279811e-02
1.1013541e-01
1.7193645e-01
2.2809328e-01
2.7652506e-01
3.1570920e-01
3.4467552e-01
3.6295993e-01
3.7053710e-01
3.6775109e-01
3.5525753e-01
3.3398318e-01
3.0509856e-01
2.6999318e-01
2.3024102e-01
1.8754803e-01
1.4367940e-01
1.0036917e-01
5.9218279e-02
2.1589660e-02
-1.1488458e-02
-3.9398496e-02
-6.1977583e-02
-7.9521686e-02
-9.2745569e-02
-1.0269799e-01
-1.1063621e-01
-1.1787012e-01
-1.2559303e-01
-1.3472061e-01
-1.4575998e-01
-1.5872739e-01
-1.7312642e-01
-1.8798963e-01
-2.0197728e-01
-2.1351816e-01
-2.2097353e-01
-2.2280428e-01
-2.1772545e-01
-2.0483659e-01
-1.8372038e-01
-1.5450412e-01
-1.1788015e-01
-7.5083665e-02
-2.7829664e-02
2.1784851e-02
7.1404964e-02
1.1855948e-01
1.6081203e-01
1.9591380e-01
2.2194991e-01
2.3747019e-01
2.4159435e-01
2.3408072e-01
2.1534999e-01
1.8645958e-01
1.4903051e-01
1.0513455e-01
5.7153667e-02
7.6259431e-03
-4.0908598e-02
-8.6051528e-02
-1.2567185e-01
-1.5801038e-01
-1.8176069e-01
-1.9612454e-01
-2.0083878e-01
-1.9616988e-01
-1.8287415e-01
-1.6212527e-01
-1.3541613e-01
-1.0444477e-01
-7.0995000e-02
-3.6820958e-02
-3.5428101e-03
2.7440902e-02
5.5020251e-02
7.8416902e-02
9.7200872e-02
1.1128080e-01
1.2086977e-01
1.2643123e-01
1.2861082e-01
1.2816087e-01
1.2586375e-01
1.2246060e-01
1.1859137e-01
1.1475072e-01
1.1126127e-01
1.0826420e-01
1.0572659e-01
1.0346517e-01
1.0118418e-01
9.8521865e-02
9.5098938e-02
9.0562468e-02
8.4620488e-02
7.7062614e-02
6.7762707e-02
5.6663101e-02
4.3745975e-02
2.9002611e-02
1.2411964e-02
-6.0644030e-03
-2.6470125e-02
-4.8828177e-02
-7.3106648e-02
-9.9181950e-02
-1.2680579e-01
-1.5558253e-01
-1.8496231e-01
-2.1425292e-01
-2.4265014e-01
-2.6928398e-01
-2.9327616e-01
-3.1380093e-01
-3.3013831e-01
-3.4170735e-01
-3.4806996e-01
-3.4890264e-01
-3.4394065e-01
-3.3290429e-01
-3.1542016e-01
-2.9095226e-01
-2.5875922e-01
-2.1789272e-01
-1.6724862e-01
-1.0567734e-01
-3.2153402e-02
5.4002984e-02
1.5286949e-01
2.6365759e-01
3.8447673e-01
5.1216444e-01
6.4221470e-01
7.6882729e-01
8.8509166e-01
9.8331084e-01
1.0554612e+00
1.0937703e+00
1.0913780e+00
1.0430320e+00
9.4575415e-01
7.9940823e-01
6.0709579e-01
3.7531068e-01
1.1379928e-01
-1.6490056e-01
-4.4623255e-01
-7.1465742e-01
-9.5486061e-01
-1.1530089e+00
-1.2979149e+00
-1.3819713e+00
-1.4017447e+00
-1.3581653e+00
-1.2563035e+00
-1.1047789e+00
-9.1489103e-01
-6.9957973e-01
-4.7233670e-01
-2.4617419e-01
-3.2739026e-02
1.5836929e-01
3.2004416e-01
4.4787257e-01
5.4010291e-01
5.9741088e-01
6.2250959e-01
6.1965812e-01
5.9412380e-01
5.5164860e-01
4.9796249e-01
4.3837698e-01
3.7748114e-01
3.1894920e-01
2.6545590e-01
2.1868394e-01
1.7940241e-01
1.4759391e-01
1.2261161e-01
1.0335096e-01
8.8424389e-02
7.6328723e-02
6.5596368e-02
5.4922186e-02
4.3260438e-02
2.9889674e-02
1.4446847e-02
-3.0662948e-03
-2.2301938e-02
-4.2609236e-02
-6.3102264e-02
-8.2753019e-02
-1.0050635e-01
-1.1540774e-01
-1.2672873e-01
-1.3407104e-01
-1.3743217e-01
-1.3722078e-01
-1.3421831e-01
-1.2949057e-01
-1.2425974e-01
-1.1975145e-01
-1.1703420e-01
-1.1686923e-01
-1.1958764e-01
-1.2500940e-01
-1.3241616e-01
-1.4058568e-01
-1.4789104e-01
-1.5246030e-01
-1.5238323e-01
-1.4594300e-01
-1.3184402e-01
-1.0940571e-01
-7.8695729e-02
-4.0584808e-02
3.2834080e-03
5.0603040e-02
9.8584687e-02
1.4418447e-01
1.8436281e-01
2.1635044e-01
2.3789789e-01
2.4748346e-01
2.4445737e-01
2.2910643e-01
2.0263586e-01
1.6707538e-01
1.2512306e-01
7.9941246e-02
3.4918468e-02
-6.5882793e-03
-4.1514377e-02
-6.7333137e-02
-8.2267068e-02
-8.5446963e-02
-7.7003823e-02
-5.8083604e-02
-3.0780973e-02
2.0053715e-03
3.6787873e-02
6.9763390e-02
9.7127320e-02
1.1540546e-01
1.2177527e-01
1.1434688e-01
9.2376979e-02
5.6394015e-02
8.2186980e-03
-4.9128787e-02
-1.1163337e-01
-1.7458742e-01
-2.3296574e-01
-2.8184156e-01
-3.1681004e-01
-3.3438546e-01
-3.3233760e-01
-3.0993228e-01
-2.6804408e-01
-2.0912084e-01
-1.3699599e-01
-5.6563481e-02
2.6653494e-02
1.0699566e-01
1.7916923e-01
2.3870025e-01
2.8229225e-01
3.0805230e-01
3.1556949e-01
3.0584847e-01
2.8111573e-01
2.4452731e-01
1.9981494e-01
1.5091072e-01
1.0158951e-01
5.5161377e-02
1.4238492e-02
-1.9408489e-02
-4.4899910e-02
-6.2208929e-02
-7.2051824e-02
-7.5727790e-02
-7.4928465e-02
-7.1533654e-02
-6.7407021e-02
-6.4205302e-02
-6.3215131e-02
-6.5230847e-02
-7.0484166e-02
-7.8632999e-02
-8.8812023e-02
-9.9741416e-02
-1.0988244e-01
-1.1762101e-01
-1.2145573e-01
-1.2016799e-01
-1.1295710e-01
-9.9529986e-02
-8.0139591e-02
-5.5569002e-02
-2.7062182e-02
3.7922414e-03
3.5212265e-02
6.5393051e-02
9.2678746e-02
1.1571669e-01
1.3357586e-01
1.4581471e-01
1.5249017e-01
1.5410650e-01
1.5151001e-01
1.4574157e-01
1.3786456e-01
1.2879127e-01
1.1913285e-01
1.0909724e-01
9.8452803e-02
8.6565622e-02
7.2505863e-02
5.5207546e-02
3.3658932e-02
7.0983018e-03
-2.4809638e-02
-6.1839847e-02
-1.0313555e-01
-1.4721214e-01
-1.9203751e-01
-2.3517683e-01
-2.7398090e-01
-3.0579440e-01
-3.2816240e-01
-3.3901912e-01
-3.3684719e-01
-3.2080029e-01
-2.9078392e-01
-2.4749069e-01
-1.9238753e-01
-1.2765303e-01
-5.6065091e-02
1.9157873e-02
9.4553555e-02
1.6663612e-01
2.3212311e-01
2.8815067e-01
3.3245924e-01
3.6353294e-01
3.8067856e-01
3.8403507e-01
3.7451235e-01
3.5366635e-01
3.2352598e-01
2.8639319e-01
2.4464052e-01
2.0053050e-01
1.5607586e-01
1.1295056e-01
7.2450757e-02
3.5497235e-02
2.6670968e-03
-2.5757793e-02
-4.9736985e-02
-6.9420824e-02
-8.5107645e-02
-9.7209331e-02
-1.0622353e-01
-1.1271098e-01
-1.1727748e-01
-1.2055917e-01
-1.2320770e-01
-1.2586991e-01
-1.2915786e-01
-1.3360905e-01
-1.3964060e-01
-1.4750221e-01
-1.5723320e-01
-1.6862908e-01
-1.8122423e-01
-1.9429803e-01
-2.0690962e-01
-2.1796307e-01
-2.2629928e-01
-2.3080662e-01
-2.3053941e-01
-2.2483116e-01
-2.1338904e-01
-1.9635701e-01
-1.7433844e-01
-1.4837287e-01
-1.1986543e-01
-9.0470384e-02
-6.1934386e-02
-3.5910303e-02
-1.3758112e-02
3.6472470e-03
1.6080618e-02
2.4084723e-02
2.9024253e-02
3.3061803e-02
3.9047159e-02
5.0319449e-02
7.0430270e-02
1.0280297e-01
1.5034868e-01
2.1506459e-01
2.9764569e-01
3.9714644e-01
5.1073226e-01
6.3355982e-01
7.5882138e-01
8.7797921e-01
9.8120202e-01
1.0579945e+00
1.0979880e+00
1.0918393e+00
1.0321658e+00
9.1443233e-01
7.3770092e-01
5.0515181e-01
2.2429800e-01
-9.3165888e-02
-4.3190829e-01
-7.7388694e-01
-1.0995986e+00
-1.3895491e+00
-1.6258026e+00
-1.7934498e+00
-1.8818369e+00
-1.8854229e+00
-1.8041788e+00
-1.6435021e+00
-1.4136724e+00
-1.1289269e+00
-8.0626747e-01
-4.6412653e-01
-1.2102066e-01
2.0569394e-01
5.0087109e-01
7.5236554e-01
9.5153147e-01
1.0934236e+00
1.1767208e+00
1.2034131e+00
1.1783040e+00
1.1083932e+00
1.0021994e+00
8.6908135e-01
7.1860041e-01
5.5995949e-01
4.0154042e-01
2.5055506e-01
1.1281685e-01
-7.3696396e-03
-1.0721258e-01
-1.8534868e-01
-2.4169235e-01
-2.7723948e-01
-2.9384607e-01
-2.9399982e-01
-2.8059933e-01
-2.5675134e-01
-2.2559113e-01
-1.9012738e-01
-1.5311146e-01
-1.1693041e-01
-8.3523619e-02
-5.4323059e-02
-3.0218046e-02
-1.1547903e-02
1.8730313e-03
1.0694540e-02
1.5933623e-02
1.8845831e-02
2.0774044e-02
2.2988249e-02
2.6532717e-02
3.2097661e-02
3.9930988e-02
4.9801914e-02
6.1022014e-02
7.2521536e-02
8.2971089e-02
9.0932371e-02
9.5017177e-02
9.4033428e-02
8.7101769e-02
7.3735773e-02
5.3887814e-02
2.7965932e-02
-3.1759743e-03
-3.8276267e-02
-7.5733867e-02
-1.1370528e-01
-1.5022514e-01
-1.8334218e-01
-2.1126045e-01
-2.3247343e-01
-2.4587863e-01
-2.5086152e-01
-2.4734075e-01
-2.3577058e-01
-2.1709986e-01
-1.9269039e-01
-1.6420120e-01
-1.3344878e-01
-1.0225633e-01
-7.2306909e-02
-4.5014709e-02
-2.1425812e-02
-2.1554034e-03
1.2635621e-02
2.3225372e-02
3.0280991e-02
3.4780488e-02
3.7914130e-02
4.0973351e-02
4.5235518e-02
5.1853933e-02
6.1762421e-02
7.5601467e-02
9.3668905e-02
1.1589464e-01
1.4183754e-01
1.7070304e-01
2.0138065e-01
2.3250112e-01
2.6251213e-01
2.8977042e-01
3.1264529e-01
3.2962638e-01
3.3942737e-01
3.4107823e-01
3.3399957e-01
3.1805273e-01
2.9355846e-01
2.6127737e-01
2.2234815e-01
1.7818616e-01
1.3035333e-01
8.0417529e-02
2.9822155e-02
-2.0216174e-02
-6.8769791e-02
-1.1521704e-01
-1.5921574e-01
-2.0063953e-01
-2.3948693e-01
-2.7577468e-01
-3.0942903e-01
-3.4019052e-01
-3.6754855e-01
-3.9071953e-01
-4.0867655e-01
-4.2023045e-01
-4.2415359e-01
-4.1933043e-01
-4.0491470e-01
-3.8047252e-01
-3.4609327e-01
-3.0245453e-01
-2.5083252e-01
-1.9305502e-01
-1.3139995e-01
-6.8450459e-02
-6.9238612e-03
5.0504454e-02
1.0136296e-01
1.4351899e-01
1.7528214e-01
1.9547792e-01
2.0349650e-01
1.9932233e-01
1.8354908e-01
1.5738278e-01
1.2263283e-01
8.1686211e-02
3.7458054e-02
-6.6882714e-03
-4.7055807e-02
-7.9764371e-02
-1.0093563e-01
-1.0691085e-01
-9.4497869e-02
-6.1240330e-02
-5.6972580e-03
7.2284841e-02
1.7133157e-01
2.8836179e-01
4.1850299e-01
5.5513135e-01
6.9006025e-01
8.1389102e-01
9.1652782e-01
9.8784351e-01
1.0184640e+00
1.0006171e+00
9.2897274e-01
8.0138923e-01
6.1947958e-01
3.8891733e-01
1.1941823e-01
-1.7564402e-01
-4.7999747e-01
-7.7557575e-01
-1.0438886e+00
-1.2675383e+00
-1.4317269e+00
-1.5255855e+00
-1.5431622e+00
-1.4839487e+00
-1.3528798e+00
-1.1598205e+00
-9.1861349e-01
-6.4581254e-01
-3.5924534e-01
-7.6556078e-02
1.8613491e-01
4.1533900e-01
6.0099174e-01
7.3688515e-01
8.2073339e-01
8.5390077e-01
8.4085090e-01
7.8839830e-01
7.0485711e-01
5.9918337e-01
4.8019621e-01
3.5594328e-01
2.3325046e-01
1.1746998e-01
1.2417958e-02
-7.9526781e-02
-1.5720335e-01
-2.2037549e-01
-2.6941071e-01
-3.0497360e-01
-3.2776924e-01
-3.3836328e-01
-3.3709369e-01
-3.2407525e-01
-2.9928632e-01
-2.6271840e-01
-2.1456407e-01
-1.5541453e-01
-8.6435972e-02
-9.4951565e-03
7.2790032e-02
1.5708941e-01
2.3949210e-01
3.1572348e-01
3.8143077e-01
4.3251242e-01
4.6546035e-01
4.7768058e-01
4.6775855e-01
4.3564018e-01
3.8270668e-01
3.1173014e-01
2.2670764e-01
1.3258460e-01
3.4890709e-02
-6.0679361e-02
-1.4870255e-01
-2.2444061e-01
-2.8418833e-01
-3.2551987e-01
-3.4740748e-01
-3.5020493e-01
-3.3550635e-01
-3.0590556e-01
-2.6468889e-01
-2.1549703e-01
-1.6198988e-01
-1.0754586e-01
-5.5021880e-02
-6.5930586e-03
3.6316675e-02
7.3011728e-02
1.0341895e-01
1.2791834e-01
1.4713763e-01
1.6174210e-01
1.7225073e-01
1.7890468e-01
1.8160441e-01
1.7991978e-01
1.7316706e-01
1.6053779e-01
1.4125914e-01
1.1476239e-01
8.0837310e-02
3.9751847e-02
-7.6801410e-03
-6.0096019e-02
-1.1565208e-01
-1.7215728e-01
-2.2725749e-01
-2.7864584e-01
-3.2427004e-01
-3.6250852e-01
-3.9229207e-01
-4.1315676e-01
-4.2522272e-01
-4.2910289e-01
-4.2575275e-01
-4.1627814e-01
-4.0172303e-01
-3.8286201e-01
-3.6002275e-01
-3.3296135e-01
-3.0080821e-01
-2.6209600e-01
-2.1487427e-01
-1.5690874e-01
-8.5954796e-02
-8.5563049e-05
1.0195391e-01
2.2040118e-01
3.5417657e-01
5.0066368e-01
6.5560062e-01
8.1310603e-01
9.6585513e-01
1.1054097e+00
1.2226914e+00
1.3085740e+00
1.3545589e+00
1.3534866e+00
1.3002264e+00
1.1922823e+00
1.0302485e+00
8.1805925e-01
5.6298606e-01
2.7535608e-01
-3.2011000e-02
-3.4461518e-01
-6.4727076e-01
-9.2518807e-01
-1.1650320e+00
-1.3558503e+00
-1.4897826e+00
-1.5624949e+00
-1.5733170e+00
-1.5250945e+00
-1.4237956e+00
-1.2779279e+00
-1.0978305e+00
-8.9490671e-01
-6.8085785e-01
-4.6696812e-01
-2.6347769e-01
-7.9068796e-02
7.9519234e-02
2.0773642e-01
3.0332676e-01
3.6629556e-01
3.9875215e-01
4.0464596e-01
3.8941539e-01
3.5956774e-01
3.2220719e-01
2.8453058e-01
2.5331600e-01
2.3443416e-01
2.3241547e-01
2.5010589e-01
2.8844227e-01
3.4637204e-01
4.2093014e-01
5.0747001e-01
6.0002799e-01
6.9178678e-01
7.7559598e-01
8.4450375e-01
8.9225469e-01
9.1371406e-01
9.0518976e-01
8.6463712e-01
7.9174374e-01
6.8789976e-01
5.5606524e-01
4.0055309e-01
2.2675189e-01
4.0814917e-02
-1.5066127e-01
-3.4095106e-01
-5.2349414e-01
-6.9216086e-01
-8.4148129e-01
-9.6683252e-01
-1.0645814e+00
-1.1321846e+00
-1.1682504e+00
-1.1725705e+00
-1.1461220e+00
-1.0910375e+00
-1.0105323e+00
-9.0877703e-01
-7.9070610e-01
-6.6176139e-01
-5.2758000e-01
-3.9364759e-01
-2.6494758e-01
-1.4564290e-01
-3.8826465e-02
5.3631472e-02
1.3112593e-01
1.9425170e-01
2.4464426e-01
2.8474966e-01
3.1755042e-01
3.4627484e-01
3.7411359e-01
4.0395909e-01
4.3817506e-01
4.7839922e-01
5.2538548e-01
5.7889704e-01
6.3766452e-01
6.9941964e-01
7.6100694e-01
8.1856712e-01
8.6777831e-01
9.0413856e-01
9.2327242e-01
9.2124430e-01
8.9486114e-01
8.4194779e-01
7.6157966e-01
6.5425728e-01
5.2200557e-01
3.6837867e-01
1.9835455e-01
1.8111649e-02
-1.6530774e-01
-3.4442859e-01
-5.1183583e-01
-6.6068387e-01
-7.8517190e-01
-8.8093605e-01
-9.4531885e-01
-9.7749073e-01
-9.7841496e-01
-9.5066556e-01
-8.9812422e-01
-8.2559387e-01
-7.3837204e-01
-6.4182591e-01
-5.4100723e-01
-4.4033916e-01
-3.4339881e-01
-2.5280901e-01
-1.7024058e-01
-9.6514222e-02
-3.1779648e-02
2.4258004e-02
7.2099315e-02
1.1223387e-01
1.4497504e-01
1.7036528e-01
1.8815826e-01
1.9787262e-01
1.9890532e-01
1.9068790e-01
1.7286614e-01
1.4547910e-01
1.0911392e-01
6.5016089e-02
1.5142195e-02
-3.7851799e-02
-9.0688504e-02
-1.3960942e-01
-1.8056705e-01
-2.0945248e-01
-2.2233989e-01
-2.1573247e-01
-1.8679841e-01
-1.3359002e-01
-5.5239688e-02
4.7872895e-02
1.7398904e-01
3.1988334e-01
4.8083229e-01
6.5065526e-01
8.2184509e-01
9.8580286e-01
1.1331852e+00
1.2543621e+00
1.3399724e+00
1.3815498e+00
1.3721792e+00
1.3071299e+00
1.1844051e+00
1.0051469e+00
7.7384198e-01
4.9828517e-01
1.8927837e-01
-1.3993353e-01
-4.7445697e-01
-7.9871131e-01
-1.0974704e+00
-1.3568853e+00
-1.5653928e+00
-1.7144316e+00
-1.7989121e+00
-1.8174126e+00
-1.7721006e+00
-1.6684015e+00
-1.5144546e+00
-1.3204105e+00
-1.0976319e+00
-8.5786866e-01
-6.1247329e-01
-3.7172370e-01
-1.4430220e-01
6.3037028e-02
2.4560305e-01
4.0071855e-01
5.2751614e-01
6.2662360e-01
6.9978658e-01
7.4947556e-01
7.7851781e-01
7.8978615e-01
7.8596726e-01
7.6942338e-01
7.4215098e-01
7.0582751e-01
6.6192365e-01
6.1184766e-01
5.5708286e-01
4.9928216e-01
4.4029221e-01
3.8209362e-01
3.2665964e-01
2.7575184e-01
2.3068409e-01
1.9209528e-01
1.5977270e-01
1.3256408e-01
1.0840529e-01
8.4474615e-02
5.7466406e-02
2.3960846e-02
-1.9145208e-02
-7.4188471e-02
-1.4231674e-01
-2.2314130e-01
-3.1451061e-01
-4.1244568e-01
-5.1126690e-01
-6.0392492e-01
-6.8252663e-01
-7.3902286e-01
-7.6599898e-01
-7.5748824e-01
-7.0971555e-01
-6.2168004e-01
-4.9549967e-01
-3.3646819e-01
-1.5280877e-01
4.4856877e-02
2.4427515e-01
4.3249280e-01
5.9687273e-01
7.2610710e-01
8.1114258e-01
8.4593789e-01
8.2798466e-01
7.5854157e-01
6.4255655e-01
4.8828010e-01
3.0660113e-01
1.1016381e-01
-8.7651567e-02
-2.7378361e-01
-4.3647686e-01
-5.6610927e-01
-6.5579360e-01
-7.0171580e-01
-7.0320383e-01
-6.6254734e-01
-5.8461173e-01
-4.7630415e-01
-3.4595268e-01
-2.0265327e-01
-5.5629991e-02
8.6354654e-02
2.1550851e-01
3.2541286e-01
4.1130256e-01
4.7021543e-01
5.0101331e-01
5.0428587e-01
4.8215432e-01
4.3799606e-01
3.7611413e-01
3.0137671e-01
2.1885177e-01
1.3346057e-01
4.9671674e-02
-2.8745644e-02
-9.8894470e-02
-1.5884076e-01
-2.0761839e-01
-2.4515217e-01
-2.7211033e-01
-2.8970666e-01
-2.9947950e-01
-3.0307510e-01
-3.0205595e-01
-2.9774446e-01
-2.9110566e-01
-2.8267154e-01
-2.7251042e-01
-2.6024410e-01
-2.4511019e-01
-2.2606133e-01
-2.0188882e-01
-1.7135776e-01
-1.3334240e-01
-8.6952829e-02
-3.1648212e-02
3.2663682e-02
1.0553836e-01
1.8591691e-01
2.7206341e-01
3.6152797e-01
4.5114847e-01
5.3710262e-01
6.1501815e-01
6.8014588e-01
7.2759727e-01
7.5264395e-01
7.5106987e-01
7.1955909e-01
6.5609312e-01
5.6032238e-01
4.3386767e-01
2.8050151e-01
1.0616307e-01
-8.1226987e-02
-2.7216217e-01
-4.5614130e-01
-6.2241341e-01
-7.6081230e-01
-8.6259903e-01
-9.2122253e-01
-9.3291313e-01
-8.9704042e-01
-8.1619453e-01
-6.9598251e-01
-5.4456429e-01
-3.7197995e-01
-1.8933970e-01
-7.9585410e-03
1.6148138e-01
3.0966592e-01
4.2922324e-01
5.1509911e-01
5.6471702e-01
5.7792809e-01
5.5677476e-01
5.0510875e-01
4.2811333e-01
3.3178420e-01
2.2241999e-01
1.0616666e-01
-1.1351201e-02
-1.2529184e-01
-2.3174411e-01
-3.2776703e-01
-4.1133595e-01
-4.8121684e-01
-5.3679441e-01
-5.7788191e-01
-6.0453896e-01
-6.1691973e-01
-6.1516553e-01
-5.9934752e-01
-5.6945612e-01
-5.2542696e-01
-4.6718991e-01
-3.9472910e-01
-3.0814698e-01
-2.0773096e-01
-9.4024694e-02
3.2092085e-02
1.6931149e-01
3.1579256e-01
4.6904958e-01
6.2584930e-01
7.8214092e-01
9.3304591e-01
1.0729325e+00
1.1955911e+00
1.2945168e+00
1.3632903e+00
1.3960380e+00
1.3879338e+00
1.3356983e+00
1.2380400e+00
1.0959847e+00
9.1304764e-01
6.9520608e-01
4.5065402e-01
1.8933690e-01
-7.7704660e-02
-3.3912654e-01
-5.8412731e-01
-8.0325151e-01
-9.8905267e-01
-1.1365378e+00
-1.2433504e+00
-1.3096906e+00
-1.3380060e+00
-1.3325110e+00
-1.2986035e+00
-1.2422477e+00
-1.1693833e+00
-1.0854141e+00
-9.9481418e-01
-9.0087566e-01
-8.0560740e-01
-7.0977674e-01
-6.1307740e-01
-5.1439691e-01
-4.1215061e-01
-3.0464492e-01
-1.9043268e-01
-6.8629065e-02
6.0834900e-02
1.9703555e-01
3.3796646e-01
4.8054317e-01
6.2070896e-01
7.5364252e-01
8.7405827e-01
9.7657894e-01
1.0561489e+00
1.1084484e+00
1.1302645e+00
1.1197794e+00
1.0767430e+00
1.0025131e+00
8.9996149e-01
7.7325915e-01
6.2756844e-01
4.6868021e-01
3.0263913e-01
1.3539940e-01
-2.7456301e-02
-1.8091581e-01
-3.2065114e-01
-4.4305585e-01
-5.4522401e-01
-6.2489463e-01
-6.8038852e-01
-7.1056339e-01
-7.1480722e-01
-6.9308039e-01
-6.4600430e-01
-5.7498210e-01
-4.8232390e-01
-3.7134149e-01
-2.4637637e-01
-1.1273311e-01
2.3497619e-02
1.5572765e-01
2.7725968e-01
3.8174882e-01
4.6369604e-01
5.1891915e-01
5.4494134e-01
5.4124153e-01
5.0932579e-01
4.5260013e-01
3.7604998e-01
2.8575869e-01
1.8832101e-01
9.0223927e-02
-2.7292646e-03
-8.5885789e-02
-1.5605526e-01
-2.1164493e-01
-2.5262112e-01
-2.8032045e-01
-2.9714808e-01
-3.0620475e-01
-3.1088190e-01
-3.1445964e-01
-3.1973866e-01
-3.2873468e-01
-3.4246028e-01
-3.6081150e-01
-3.8256653e-01
-4.0549344e-01
-4.2655504e-01
-4.4219280e-01
-4.4866645e-01
-4.4242195e-01
-4.2045596e-01
-3.8064372e-01
-3.2199786e-01
-2.4483140e-01
-1.5080750e-01
-4.2870899e-02
7.4930225e-02
1.9771195e-01
3.2008377e-01
4.3650796e-01
5.4165937e-01
6.3075906e-01
6.9985964e-01
7.4606437e-01
7.6766698e-01
7.6420638e-01
7.3643841e-01
6.8623395e-01
6.1641794e-01
5.3056570e-01
4.3277243e-01
3.2741040e-01
2.1888702e-01
1.1141677e-01
8.8201468e-03
-8.5638363e-02
-1.6936420e-01
-2.4049377e-01
-2.9790260e-01
-3.4116557e-01
-3.7047922e-01
-3.8656035e-01
-3.9053633e-01
-3.8383970e-01
-3.6811446e-01
-3.4513579e-01
-3.1674109e-01
-2.8476913e-01
-2.5100346e-01
-2.1711709e-01
-1.8461629e-01
-1.5478384e-01
-1.2862327e-01
-1.0680804e-01
-8.9641237e-02
-7.7034372e-02
-6.8514594e-02
-6.3266728e-02
-6.0209714e-02
-5.8098722e-02
-5.5638740e-02
-5.1595316e-02
-4.4892190e-02
-3.4690781e-02
-2.0450706e-02
-1.9725970e-03
2.0575849e-02
4.6652234e-02
7.5355005e-02
1.0546848e-01
1.3554179e-01
1.6400085e-01
1.8928522e-01
2.0999524e-01
2.2503072e-01
2.3370162e-01
2.3579190e-01
2.3156323e-01
2.2169489e-01
2.0716984e-01
1.8912852e-01
1.6871725e-01
1.4695569e-01
1.2464142e-01
1.0230161e-01
8.0193533e-02
5.8347456e-02
3.6638211e-02
1.4868433e-02
-7.1529413e-03
-2.9548809e-02
-5.2334941e-02
-7.5405409e-02
-9.8540300e-02
-1.2143040e-01
-1.4371090e-01
-1.6499519e-01
-1.8490117e-01
-2.0306408e-01
-2.1913398e-01
-2.3276039e-01
-2.4357208e-01
-2.5116224e-01
-2.5508772e-01
-2.5488571e-01
-2.5010557e-01
-2.4034894e-01
-2.2531061e-01
-2.0481431e-01
-1.7884069e-01
-1.4754734e-01
-1.1128091e-01
-7.0581359e-02
-2.6177336e-02
2.1028480e-02
6.9984897e-02
1.1952860e-01
1.6842942e-01
2.1544002e-01
2.5934378e-01
2.9899421e-01
3.3334057e-01
3.6143712e-01
3.8243834e-01
3.9558695e-01
4.0020473e-01
3.9569552e-01
3.8156741e-01
3.5747733e-01
3.2329645e-01
2.7918948e-01
2.2569490e-01
1.6379125e-01
9.4936003e-02
2.1068454e-02
-5.5427038e-02
-1.3179842e-01
-2.0504299e-01
-2.7206002e-01
-3.2982933e-01
-3.7560183e-01
-4.0708639e-01
-4.2261920e-01
-4.2130250e-01
-4.0310066e-01
-3.6888235e-01
-3.2040183e-01
-2.6021795e-01
-1.9155519e-01
-1.1811486e-01
-4.3848639e-02
2.7289142e-02
9.1590405e-02
1.4582245e-01
1.8741975e-01
2.1462664e-01
2.2658436e-01
2.2335873e-01
2.0590745e-01
1.7598935e-01
1.3602219e-01
8.8898784e-02
3.7774369e-02
-1.4160046e-02
-6.3901535e-02
-1.0883827e-01
-1.4691423e-01
-1.7674141e-01
-1.9765067e-01
-2.0967793e-01
-2.1348691e-01
-2.1023423e-01
-2.0138850e-01
-1.8852179e-01
-1.7309550e-01
-1.5626357e-01
-1.3871391e-01
-1.2056628e-01
-1.0134055e-01
-8.0002197e-02
-5.5083170e-02
-2.4868011e-02
1.2370426e-02
5.8104809e-02
1.1327917e-01
1.7805297e-01
2.5159277e-01
3.3194113e-01
4.1598793e-01
4.9955973e-01
5.7763068e-01
6.4464485e-01
6.9492714e-01
7.2314901e-01
7.2480653e-01
6.9666503e-01
6.3712530e-01
5.4647255e-01
4.2697955e-01
2.8284838e-01
1.1999030e-01
-5.4340934e-02
-2.3203126e-01
-4.0465856e-01
-5.6405882e-01
-7.0285034e-01
-8.1487079e-01
-8.9550087e-01
-9.4186556e-01
-9.5291646e-01
-9.2940394e-01
-8.7374915e-01
-7.8982609e-01
-6.8266741e-01
-5.5811312e-01
-4.2242793e-01
-2.8191643e-01
-1.4256560e-01
-9.7409556e-03
1.1204409e-01
2.1927524e-01
3.0950060e-01
3.8131754e-01
4.3429473e-01
4.6884259e-01
4.8604833e-01
4.8749531e-01
4.7508809e-01
4.5090218e-01
4.1707071e-01
3.7571121e-01
3.2888743e-01
2.7859446e-01
2.2675260e-01
1.7519577e-01
1.2564409e-01
7.9655641e-02
3.8559791e-02
3.3809573e-03
-2.5232292e-02
-4.7056323e-02
-6.2305646e-02
-7.1601939e-02
-7.5897731e-02
-7.6361735e-02
-7.4240809e-02
-7.0718514e-02
-6.6790178e-02
-6.3170411e-02
-6.0243703e-02
-5.8063262e-02
-5.6397941e-02
-5.4821452e-02
-5.2832004e-02
-4.9984489e-02
-4.6013520e-02
-4.0926245e-02
-3.5048750e-02
-2.9016287e-02
-2.3703325e-02
-2.0096014e-02
-1.9119618e-02
-2.1445505e-02
-2.7311725e-02
-3.6393520e-02
-4.7754186e-02
-5.9894041e-02
-7.0899229e-02
-7.8675219e-02
-8.1233897e-02
-7.6990573e-02
-6.5021862e-02
-4.5241007e-02
-1.8463067e-02
1.3647059e-02
4.8732592e-02
8.3985479e-02
1.1643947e-01
1.4328165e-01
1.6214743e-01
1.7136721e-01
1.7014118e-01
1.5862871e-01
1.3794606e-01
1.1007077e-01
7.7656687e-02
4.3772813e-02
1.1590014e-02
-1.5952656e-02
-3.6467761e-02
-4.8392246e-02
-5.1183715e-02
-4.5417987e-02
-3.2778313e-02
-1.5943528e-02
