-4.3408580e-01
-8.3256173e-01
-1.1668216e+00
-1.3910911e+00
-1.5055369e+00
-1.5544583e+00
-1.5992676e+00
-1.6833724e+00
-1.8037146e+00
-1.9128780e+00
-1.9555679e+00
-1.9051480e+00
-1.7690099e+00
-1.5683469e+00
-1.3210961e+00
-1.0510316e+00
-7.9124291e-01
-5.4882789e-01
-2.8626879e-01
4.1534632e-02
4.5217389e-01
9.3260365e-01
1.4332630e+00
1.8562233e+00
2.1015172e+00
2.1375905e+00
1.9765176e+00
1.6298505e+00
1.1419285e+00
6.2562440e-01
2.1136711e-01
-3.5580167e-02
-1.2477545e-01
-1.1173735e-01
-7.9148825e-02
-1.0819249e-01
-2.2372357e-01
-3.7107132e-01
-4.7329611e-01
-4.8816205e-01
-4.1032341e-01
-2.6176445e-01
-9.2131540e-02
3.3079246e-02
7.6701926e-02
5.8348152e-02
1.5554885e-02
-4.0217381e-02
-1.1170347e-01
-1.8744234e-01
-2.4907337e-01
-2.9415656e-01
-3.3000831e-01
-3.5485808e-01
-3.6459910e-01
-3.6615858e-01
-3.6507192e-01
-3.5389464e-01
-3.2975847e-01
-3.0429903e-01
-2.8086529e-01
-2.3912615e-01
-1.5354591e-01
-2.0665202e-02
1.4242254e-01
3.1254609e-01
4.4691086e-01
4.7803546e-01
3.7956784e-01
2.2136604e-01
1.0845386e-01
9.8404258e-02
1.9312772e-01
3.5700869e-01
5.1906369e-01
5.9178350e-01
5.3481553e-01
3.8699418e-01
2.0584958e-01
1.3768896e-02
-1.7570205e-01
-3.2422243e-01
-3.8769790e-01
-3.5420107e-01
-2.5589015e-01
-1.5568135e-01
-1.2213548e-01
-1.9264085e-01
-3.4170814e-01
-4.9972396e-01
-6.1346294e-01
-6.7486033e-01
-6.9784500e-01
-6.9141210e-01
-6.6256146e-01
-6.2838618e-01
-5.9872202e-01
-5.5397908e-01
-4.6496943e-01
-3.2169620e-01
-1.2788101e-01
1.1904921e-01
4.3160992e-01
8.1624973e-01
1.2573162e+00
1.7013649e+00
2.0345437e+00
2.0992265e+00
1.7941525e+00
1.1895567e+00
4.9800086e-01
-8.5493216e-02
-4.7280570e-01
-6.6302971e-01
-6.9589750e-01
-6.1954613e-01
-4.7272941e-01
-2.6242137e-01
2.8784908e-02
3.9293911e-01
7.3839710e-01
8.9764853e-01
7.7232529e-01
4.6291504e-01
1.5928420e-01
-3.9395773e-02
-1.3258295e-01
-1.5952676e-01
-2.4097493e-01
-5.0977846e-01
-9.0449309e-01
-1.2519918e+00
-1.4629316e+00
-1.5398745e+00
-1.5343877e+00
-1.5158088e+00
-1.5241690e+00
-1.5292251e+00
-1.4595476e+00
-1.2687864e+00
-9.5966151e-01
-5.6729815e-01
-1.2706345e-01
3.4882678e-01
8.6440706e-01
1.4239584e+00
2.0035634e+00
2.4923736e+00
2.6891154e+00
2.4531727e+00
1.8556926e+00
1.1188372e+00
4.3903818e-01
-8.9233937e-02
-4.3965955e-01
-6.2218137e-01
-6.6934976e-01
-6.2076712e-01
-5.2047079e-01
-4.2525310e-01
-3.8864087e-01
-4.2669914e-01
-5.1028534e-01
-5.8115078e-01
-5.7668247e-01
-4.5498721e-01
-2.0171964e-01
1.7284561e-01
6.4061213e-01
1.1533551e+00
1.5895496e+00
1.7453609e+00
1.5013032e+00
9.7525146e-01
4.0062851e-01
-7.8550783e-02
-4.3214343e-01
-6.7713082e-01
-8.3316086e-01
-9.1276391e-01
-9.2948650e-01
-8.9972550e-01
-8.4436429e-01
-7.9372548e-01
-7.7973314e-01
-8.2166603e-01
-9.2190272e-01
-1.0559291e+00
-1.1702744e+00
-1.2121068e+00
-1.1563161e+00
-1.0078499e+00
-7.8265843e-01
-4.8115418e-01
-9.0427030e-02
3.8959057e-01
9.3926813e-01
1.5205310e+00
2.0365885e+00
2.3181345e+00
2.2203366e+00
1.7589302e+00
1.1225170e+00
5.2817744e-01
9.7324200e-02
-1.3912029e-01
-1.8681076e-01
-7.4349163e-02
1.2499908e-01
2.6511922e-01
1.8266986e-01
-1.5570374e-01
-6.0293829e-01
-9.5249214e-01
-1.0824166e+00
-9.8566972e-01
-7.1750436e-01
-3.5736541e-01
-6.2899761e-03
2.4466774e-01
3.9836037e-01
5.4791759e-01
7.4053766e-01
8.9494445e-01
8.6456415e-01
5.9352015e-01
1.9464845e-01
-1.5778721e-01
-3.6748921e-01
-4.2944017e-01
-3.6886186e-01
-2.1653865e-01
-1.0399576e-02
1.8711016e-01
2.8255959e-01
2.0998444e-01
9.5195735e-03
-1.9082673e-01
-2.9378319e-01
-2.8770092e-01
-2.0806820e-01
-1.0828845e-01
-5.0424060e-02
-7.6794713e-02
-1.7045948e-01
-2.5776097e-01
-2.6354873e-01
-1.6807272e-01
-2.1110973e-02
9.8865030e-02
1.4578528e-01
1.3432152e-01
1.1846484e-01
1.4073063e-01
1.8949795e-01
1.8857459e-01
8.2378824e-02
-8.3346855e-02
-2.2124123e-01
-2.7043374e-01
-2.2048327e-01
-1.3217454e-01
-1.1878857e-01
-2.6724990e-01
-5.4591701e-01
-8.1636246e-01
-9.5258740e-01
-9.1651917e-01
-7.4364933e-01
-4.9921458e-01
-2.3110262e-01
4.7932157e-02
3.4264223e-01
6.5144751e-01
9.3603199e-01
1.1112833e+00
1.1051022e+00
9.3207163e-01
6.7532202e-01
4.1402003e-01
1.9467394e-01
4.6870932e-02
-5.9395875e-03
2.8470371e-02
8.1863044e-02
5.0394343e-02
-1.2447592e-01
-3.9966880e-01
-6.6731439e-01
-8.3486654e-01
-8.7083175e-01
-8.1925907e-01
-7.5686960e-01
-7.0400743e-01
-6.1538747e-01
-4.4560398e-01
-1.8201155e-01
1.6321936e-01
5.4808521e-01
8.6449536e-01
9.5450802e-01
7.5002962e-01
3.6750237e-01
3.4991783e-03
-2.2138786e-01
-2.8688909e-01
-2.1285866e-01
-2.6869823e-02
2.4328905e-01
5.4525001e-01
7.5334654e-01
7.0229469e-01
3.4262089e-01
-1.6802506e-01
-6.0411614e-01
-8.4670357e-01
-8.8561714e-01
-7.5412766e-01
-4.9160602e-01
-1.2989693e-01
3.0282785e-01
7.8331741e-01
1.2721291e+00
1.6560879e+00
1.7599360e+00
1.4873152e+00
9.2990365e-01
2.9802197e-01
-2.3563306e-01
-5.9996925e-01
-7.8648728e-01
-8.2174912e-01
-7.5864574e-01
-6.5866345e-01
-5.7517853e-01
-5.3408061e-01
-5.1395585e-01
-4.5642294e-01
-3.1358966e-01
-7.7228325e-02
2.2751374e-01
5.4541705e-01
7.8273006e-01
8.3571817e-01
6.8074480e-01
4.1588862e-01
1.7051214e-01
2.8149614e-03
-1.0415437e-01
-1.8475330e-01
-2.4794235e-01
-2.8277660e-01
-2.7990495e-01
-2.4914041e-01
-2.3184450e-01
-2.7963302e-01
-3.9889958e-01
-5.3313237e-01
-6.2089263e-01
-6.5473704e-01
-6.7615298e-01
-7.2073578e-01
-7.7922938e-01
-8.1596102e-01
-7.9968828e-01
-7.0490323e-01
-5.0573110e-01
-1.9066622e-01
2.2355214e-01
6.9652322e-01
1.1602082e+00
1.5048098e+00
1.6164855e+00
1.4775250e+00
1.1893639e+00
8.7493863e-01
5.9449903e-01
3.6118518e-01
1.9916017e-01
1.4585477e-01
2.2145290e-01
4.1433367e-01
6.7204775e-01
8.9824346e-01
9.4294940e-01
6.8522299e-01
1.9519623e-01
-3.2233638e-01
-7.2287603e-01
-9.6541489e-01
-1.0648040e+00
-1.0668295e+00
-1.0233865e+00
-9.6229078e-01
-8.8759320e-01
-8.0085028e-01
-7.1021414e-01
-6.2401161e-01
-5.4596324e-01
-4.7697294e-01
-4.1568463e-01
-3.5752916e-01
-3.0198306e-01
-2.6221775e-01
-2.5295491e-01
-2.7300774e-01
-3.1848651e-01
-3.9438519e-01
-4.9037659e-01
-5.6534793e-01
-5.7486688e-01
-5.0098198e-01
-3.5140219e-01
-1.4000709e-01
1.2849802e-01
4.5611023e-01
8.3988665e-01
1.2507264e+00
1.6250463e+00
1.9047843e+00
2.0910340e+00
2.2180749e+00
2.2524799e+00
2.0783371e+00
1.6150546e+00
9.2309727e-01
1.6130198e-01
-5.3683121e-01
-1.1057937e+00
-1.5220320e+00
-1.7857293e+00
-1.9193763e+00
-1.9572848e+00
-1.9298544e+00
-1.8627367e+00
-1.7698132e+00
-1.6397107e+00
-1.4505172e+00
-1.2001845e+00
-9.0130618e-01
-5.6051927e-01
-1.8990984e-01
1.7497474e-01
5.0333039e-01
8.1160999e-01
1.1424208e+00
1.5152101e+00
1.9149914e+00
2.3119677e+00
2.6656195e+00
2.9033748e+00
2.9287265e+00
2.6823800e+00
2.1921314e+00
1.5366032e+00
7.7402128e-01
-5.9622371e-02
-8.8728898e-01
-1.5919609e+00
-2.0961515e+00
-2.3951233e+00
-2.5326527e+00
-2.5511649e+00
-2.4638286e+00
-2.2785944e+00
-2.0063777e+00
-1.6418412e+00
-1.1808270e+00
-6.5545471e-01
-1.4165070e-01
2.8370535e-01
6.0256736e-01
8.4990869e-01
1.0644227e+00
1.2405127e+00
1.3197357e+00
1.2364121e+00
9.8259629e-01
6.4167621e-01
3.4237318e-01
1.7844383e-01
1.7430288e-01
3.0230714e-01
5.1193451e-01
7.5602685e-01
9.8822877e-01
1.1323833e+00
1.0953870e+00
8.4537526e-01
4.7179125e-01
1.2383707e-01
-1.1050527e-01
-2.3501841e-01
-2.9214299e-01
-3.1966279e-01
-3.4369057e-01
-3.7847235e-01
-4.2242359e-01
-4.6305316e-01
-4.8748441e-01
-4.8491805e-01
-4.4535876e-01
-3.6985325e-01
-2.8664937e-01
-2.3836819e-01
-2.4084657e-01
-2.7553138e-01
-3.1730511e-01
-3.4904311e-01
-3.6280652e-01
-3.7279600e-01
-4.3576186e-01
-5.6545169e-01
-6.8258167e-01
-7.3720269e-01
-7.3361474e-01
-6.7311695e-01
-5.4227675e-01
-3.1333622e-01
2.6168757e-02
4.5343306e-01
8.9254962e-01
1.1969932e+00
1.2182130e+00
9.3970961e-01
5.0812588e-01
9.9592813e-02
-1.9566003e-01
-3.6621232e-01
-4.3788377e-01
-4.4090918e-01
-3.9522813e-01
-3.0969704e-01
-1.8250975e-01
-1.0383719e-02
2.0550195e-01
4.5745114e-01
7.0137233e-01
8.3608171e-01
7.6898125e-01
5.2173162e-01
2.3435544e-01
4.5166383e-02
4.2101648e-03
9.0118771e-02
2.4179593e-01
3.6176510e-01
3.4402737e-01
1.6057300e-01
-9.9820075e-02
-3.2031854e-01
-4.4748193e-01
-4.8631777e-01
-4.5650227e-01
-3.7326950e-01
-2.5983070e-01
-1.6210333e-01
-1.3923710e-01
-2.3098780e-01
-4.2313977e-01
-6.4448132e-01
-8.0750171e-01
-8.6181703e-01
-8.2368463e-01
-7.4538092e-01
-6.4118266e-01
-4.7232029e-01
-2.0062470e-01
1.7813012e-01
6.3325882e-01
1.0809205e+00
1.3728987e+00
1.3753902e+00
1.0886948e+00
6.5593641e-01
2.5043240e-01
-2.8938216e-02
-1.7021158e-01
-2.0167070e-01
-1.5356486e-01
-4.1102403e-02
1.2332744e-01
2.9296818e-01
3.7672861e-01
2.9841407e-01
6.5359197e-02
-2.4783879e-01
-5.5958202e-01
-8.0778624e-01
-9.3913851e-01
-9.0449736e-01
-6.8798989e-01
-3.3011102e-01
6.0583579e-02
3.4490529e-01
4.7124662e-01
5.3171109e-01
6.6314018e-01
9.1105568e-01
1.1785344e+00
1.2812916e+00
1.0971621e+00
6.7624386e-01
1.8554096e-01
-2.3144311e-01
-5.1203954e-01
-6.3964967e-01
-6.2746593e-01
-5.1779707e-01
-3.7712849e-01
-2.8798021e-01
-3.0691581e-01
-4.1070116e-01
-5.0471442e-01
-5.0277499e-01
-3.7923471e-01
-1.5313545e-01
1.3607290e-01
4.2769124e-01
6.4315469e-01
7.3468928e-01
7.1882242e-01
6.2766621e-01
4.5408586e-01
1.8261488e-01
-1.4355715e-01
-4.3816280e-01
-6.3973394e-01
-7.3355471e-01
-7.4074102e-01
-7.1148501e-01
-7.0722796e-01
-7.4395277e-01
-7.6228656e-01
-6.8714623e-01
-4.8781814e-01
-1.7390867e-01
2.3110056e-01
6.9710051e-01
1.1722437e+00
1.5278678e+00
1.5797582e+00
1.2714414e+00
7.5632731e-01
2.5461393e-01
-9.7516476e-02
-2.6279443e-01
-2.6073374e-01
-1.3743014e-01
3.7459592e-02
1.5185449e-01
9.3438150e-02
-1.4561195e-01
-4.4257141e-01
-6.5919747e-01
-7.4368870e-01
-7.1877644e-01
-6.2794060e-01
-5.0597583e-01
-3.7572265e-01
-2.4747067e-01
-1.2383128e-01
-1.7383393e-02
4.8343346e-02
7.3126505e-02
9.5113101e-02
1.5210123e-01
2.5501936e-01
3.9809432e-01
5.5182286e-01
6.3909289e-01
5.6829949e-01
3.3453073e-01
5.2262798e-02
-1.4956116e-01
-2.2113566e-01
-1.8198273e-01
-7.7792383e-02
4.1844907e-02
1.3090864e-01
1.6341314e-01
1.3871844e-01
5.8717083e-02
-7.0296633e-02
-2.1105366e-01
-3.0877952e-01
-3.3449832e-01
-2.9878508e-01
-2.2304181e-01
-1.1796831e-01
-3.0884756e-03
7.8524251e-02
1.0023568e-01
8.0884917e-02
4.0009411e-02
-3.3757671e-02
-1.4101437e-01
-2.3587558e-01
-2.6288097e-01
-2.0749624e-01
-9.6952600e-02
2.4491747e-02
1.1164929e-01
1.3381399e-01
1.0409588e-01
7.9400251e-02
1.0952079e-01
2.0419098e-01
3.4459962e-01
4.8857797e-01
5.6209899e-01
4.9058915e-01
2.7458050e-01
6.7413734e-03
-2.1580560e-01
-3.6342820e-01
-4.5184718e-01
-4.9109263e-01
-4.7550536e-01
-4.1240268e-01
-3.3333686e-01
-2.7005492e-01
-2.3882823e-01
-2.3729835e-01
-2.4090267e-01
-2.1603346e-01
-1.4130228e-01
-1.4753943e-02
1.5352167e-01
3.4013656e-01
4.8694681e-01
5.0656762e-01
3.5862799e-01
1.0988382e-01
-1.2841336e-01
-3.0708042e-01
-4.5648264e-01
-6.1391113e-01
-7.5997829e-01
-8.3557062e-01
-7.9264158e-01
-6.1338054e-01
-3.0321790e-01
1.1672764e-01
6.2121025e-01
1.1917314e+00
1.7735208e+00
2.1948760e+00
2.2356041e+00
1.8551990e+00
1.2398052e+00
6.0795310e-01
6.5302697e-02
-3.7578901e-01
-7.1534629e-01
-9.4000435e-01
-1.0473292e+00
-1.0577723e+00
-1.0065887e+00
-9.4056117e-01
-8.9538794e-01
-8.7239187e-01
-8.6171010e-01
-8.5690945e-01
-8.3526081e-01
-7.6089063e-01
-6.2943630e-01
-5.0377551e-01
-4.1023876e-01
-2.6589356e-01
-8.4615077e-03
3.5915861e-01
8.1453933e-01
1.3032448e+00
1.7287679e+00
1.9782988e+00
1.9837723e+00
1.7605978e+00
1.3764339e+00
9.0490588e-01
4.1541615e-01
-1.9270576e-02
-3.2780599e-01
-4.8164601e-01
-5.3033948e-01
-5.7235560e-01
-6.7117413e-01
-8.0473999e-01
-9.0282537e-01
-9.0869078e-01
-8.0105124e-01
-5.9726196e-01
-3.4927841e-01
-1.3885966e-01
-6.0480462e-02
-1.5814630e-01
-3.7074680e-01
-5.7631016e-01
-7.0341356e-01
-7.6836903e-01
-8.1811381e-01
-8.6241404e-01
-8.6618494e-01
-7.9126960e-01
-6.2277572e-01
-3.6227329e-01
-1.2366812e-02
4.1694765e-01
8.8874745e-01
1.2980341e+00
1.4827750e+00
1.3493592e+00
9.8160326e-01
5.9191433e-01
3.5653657e-01
3.3357365e-01
5.0341983e-01
8.0359906e-01
1.1026386e+00
1.2189598e+00
1.0834978e+00
8.1565510e-01
5.5567570e-01
3.1890648e-01
3.8316253e-02
-3.1798027e-01
-7.0007596e-01
-1.0239891e+00
-1.2354549e+00
-1.3238085e+00
-1.2946716e+00
-1.1598823e+00
-9.3611199e-01
-6.5234400e-01
-3.7618771e-01
-2.0283231e-01
-1.7975188e-01
-2.6111249e-01
-3.6319724e-01
-4.2288667e-01
-3.9481455e-01
-2.4136490e-01
5.7652641e-02
4.9214907e-01
1.0288416e+00
1.5895429e+00
1.9808937e+00
1.9711636e+00
1.5552277e+00
9.8868312e-01
4.9505961e-01
1.2035234e-01
-1.7932013e-01
-4.4292467e-01
-6.5951835e-01
-7.8807587e-01
-8.0369947e-01
-7.1375294e-01
-5.5211062e-01
-3.8815622e-01
-3.1985185e-01
-4.0887775e-01
-6.1916750e-01
-8.3862337e-01
-9.6038950e-01
-9.3085052e-01
-7.3910915e-01
-4.0226312e-01
3.9860595e-02
5.2733110e-01
9.5169795e-01
1.1549586e+00
1.0481746e+00
7.1729154e-01
3.3669389e-01
2.9055272e-02
-1.6427968e-01
-2.5133311e-01
-2.5656875e-01
-2.0691689e-01
-1.2755796e-01
-2.7662291e-02
1.0089781e-01
2.4538438e-01
3.4943602e-01
3.4529126e-01
2.0148294e-01
-5.9313092e-02
-3.6673170e-01
-6.2775219e-01
-7.8134468e-01
-8.1958985e-01
-7.5808169e-01
-6.1057502e-01
-3.8781754e-01
-1.1404357e-01
2.0910405e-01
6.1218646e-01
1.0527291e+00
1.3698478e+00
1.3841724e+00
1.0595298e+00
5.4595980e-01
4.0848431e-02
-3.4341911e-01
-5.8064365e-01
-6.7287553e-01
-6.3379899e-01
-4.9906789e-01
-3.4476501e-01
-2.8798956e-01
-4.1169918e-01
-6.6907580e-01
-9.0870388e-01
-1.0036090e+00
-9.1783736e-01
-6.7980725e-01
-3.3548123e-01
8.5174844e-02
5.7275623e-01
1.1201215e+00
1.6949887e+00
2.2010441e+00
2.4763467e+00
2.3860161e+00
1.9415607e+00
1.2986878e+00
6.3367510e-01
5.5331223e-02
-3.8908002e-01
-6.8422165e-01
-8.4144681e-01
-8.9584567e-01
-8.9679784e-01
-9.0104330e-01
-9.5285845e-01
-1.0489212e+00
-1.1345329e+00
-1.1557159e+00
-1.0999532e+00
-9.8544401e-01
-8.3503397e-01
-6.6747460e-01
-5.0432757e-01
-3.6285276e-01
-2.3604658e-01
-9.8272718e-02
7.0493228e-02
2.7560605e-01
5.0520779e-01
7.2064679e-01
8.6632063e-01
9.1636195e-01
8.8897354e-01
8.0007016e-01
6.5199047e-01
4.7300059e-01
3.1644183e-01
2.0264691e-01
8.5505694e-02
-1.0105203e-01
-3.5721743e-01
-6.0341203e-01
-7.5744905e-01
-7.8814214e-01
-7.0431941e-01
-5.3124397e-01
-3.1848258e-01
-1.4432237e-01
-5.6044382e-02
-1.2789273e-02
7.7583630e-02
2.7722489e-01
5.8480557e-01
9.3394571e-01
1.1923907e+00
1.2258423e+00
1.0007262e+00
5.8939212e-01
1.0192579e-01
-3.6418215e-01
-7.4265083e-01
-9.9618794e-01
-1.1272611e+00
-1.1845447e+00
-1.2258476e+00
-1.2699458e+00
-1.2889819e+00
-1.2333528e+00
-1.0652156e+00
-7.8120435e-01
-4.0542008e-01
3.2869305e-02
5.2663139e-01
1.0962047e+00
1.7449468e+00
2.3775502e+00
2.7721408e+00
2.7267089e+00
2.2397398e+00
1.4988194e+00
7.2452832e-01
5.1688299e-02
-4.6877721e-01
-8.2488702e-01
-1.0286501e+00
-1.1134905e+00
-1.1261280e+00
-1.1057802e+00
-1.0661730e+00
-1.0003383e+00
-8.9384580e-01
-7.3079915e-01
-5.0477426e-01
-2.4624086e-01
-3.0605040e-02
7.1758670e-02
7.6502435e-02
8.7424425e-02
2.0405871e-01
4.6163109e-01
8.2658129e-01
1.1922866e+00
1.4082332e+00
1.3915933e+00
1.1564871e+00
7.4407075e-01
2.3399983e-01
-2.6504226e-01
-6.7063841e-01
-9.3919124e-01
-1.0687392e+00
-1.0885023e+00
-1.0381435e+00
-9.6133738e-01
-9.0720149e-01
-9.0610767e-01
-9.3147240e-01
-9.1922945e-01
-8.2593279e-01
-6.4393133e-01
-3.7693613e-01
-2.1805879e-02
4.2149787e-01
9.3961380e-01
1.4997824e+00
1.9952406e+00
2.2176349e+00
2.0156896e+00
1.4795818e+00
8.4751588e-01
2.8910438e-01
-1.4997991e-01
-4.7878196e-01
-7.0015512e-01
-8.1230545e-01
-8.3248620e-01
-7.9630980e-01
-7.4119176e-01
-6.9508662e-01
-6.7368933e-01
-6.9043550e-01
-7.6500607e-01
-8.9227770e-01
-1.0155283e+00
-1.0637793e+00
-1.0013431e+00
-8.3668683e-01
-6.0184014e-01
-3.1811066e-01
2.2333549e-02
4.3643140e-01
9.2177572e-01
1.4413136e+00
1.9041048e+00
2.1742517e+00
2.1489378e+00
1.8327005e+00
1.3204419e+00
7.3977200e-01
2.1253327e-01
-1.7433080e-01
-3.8114079e-01
-4.1459311e-01
-3.2461590e-01
-2.0142041e-01
-1.5173333e-01
-2.3364552e-01
-4.0489161e-01
-5.5864002e-01
-6.1963486e-01
-5.9023256e-01
-5.1685326e-01
-4.3665738e-01
-3.5919254e-01
-2.8361310e-01
-2.0836343e-01
-1.2398315e-01
-1.2820819e-02
1.3551021e-01
3.0911501e-01
4.6255192e-01
5.1617956e-01
4.0663960e-01
1.6493519e-01
-9.6292457e-02
-2.8916536e-01
-4.0852433e-01
-5.0474456e-01
-6.2312512e-01
-7.5707956e-01
-8.6283943e-01
-9.0406730e-01
-8.7046904e-01
-7.7261765e-01
-6.3470116e-01
-4.7366059e-01
-2.7349279e-01
-2.1554216e-03
3.5175247e-01
7.7281351e-01
1.2150817e+00
1.5808261e+00
1.7403348e+00
1.6184050e+00
1.2663599e+00
8.1494637e-01
3.7958046e-01
2.7754647e-02
-2.1013142e-01
-3.2048180e-01
-3.0580157e-01
-1.9441789e-01
-5.8096393e-02
-1.3456320e-02
-1.5623130e-01
-4.7529339e-01
-8.4693982e-01
-1.1299395e+00
-1.2528336e+00
-1.2118764e+00
-1.0346455e+00
-7.5598561e-01
-4.1205815e-01
-2.9227578e-02
3.9655893e-01
8.7120449e-01
1.3439051e+00
1.7001591e+00
1.8433494e+00
1.7821663e+00
1.6228270e+00
1.3626233e+00
8.7543008e-01
2.2968757e-01
-3.5691931e-01
-7.7059129e-01
-1.0118178e+00
-1.1353391e+00
-1.2232820e+00
-1.3447030e+00
-1.4970016e+00
-1.6132243e+00
-1.6308985e+00
-1.5313868e+00
-1.3331995e+00
-1.0682577e+00
-7.6424125e-01
-4.3926998e-01
-9.1559301e-02
2.9461139e-01
7.2145598e-01
1.1655755e+00
1.5760708e+00
1.8659362e+00
1.9344079e+00
1.7309751e+00
1.3055536e+00
7.8290984e-01
2.8518554e-01
-1.1257143e-01
-3.7583562e-01
-4.8980885e-01
-4.6808235e-01
-3.8308612e-01
-3.6591557e-01
-5.2287297e-01
-8.2429698e-01
-1.1277769e+00
-1.3092116e+00
-1.3251875e+00
-1.2076610e+00
-1.0286212e+00
-8.2062186e-01
-5.5216557e-01
-1.8320071e-01
2.9966038e-01
8.7625818e-01
1.4498254e+00
1.8188694e+00
1.7974004e+00
1.4074107e+00
8.6663821e-01
3.9197638e-01
8.7284429e-02
-3.1514399e-02
1.9831017e-02
2.1156116e-01
4.8345053e-01
6.9049657e-01
6.3455997e-01
2.5942309e-01
-2.6237989e-01
-6.9168759e-01
-9.0327686e-01
-9.1298227e-01
-8.2003546e-01
-7.0842272e-01
-5.6506499e-01
-3.2027286e-01
6.5562310e-02
5.7719085e-01
1.1395423e+00
1.5759954e+00
1.6564044e+00
1.3026545e+00
6.8524441e-01
6.3849849e-02
-4.0894405e-01
-7.0869899e-01
-8.5795846e-01
-8.9046891e-01
-8.4400650e-01
-7.5805812e-01
-6.8738236e-01
-6.9741861e-01
-8.0615228e-01
-9.4249765e-01
-1.0085181e+00
-9.5848127e-01
-7.9714228e-01
-5.4058335e-01
-1.9442998e-01
2.3743546e-01
7.3864435e-01
1.2797152e+00
1.7916599e+00
2.1243799e+00
2.1137017e+00
1.7465485e+00
1.1870413e+00
6.2668359e-01
1.7042261e-01
-1.5290578e-01
-3.4156228e-01
-4.0939356e-01
-3.8749677e-01
-3.2503641e-01
-2.9251497e-01
-3.5614120e-01
-5.2498510e-01
-7.3180777e-01
-8.8656464e-01
-9.4157515e-01
-9.0035214e-01
-7.8961267e-01
-6.3749652e-01
-4.8058582e-01
-3.6206902e-01
-2.8901993e-01
-2.1830893e-01
-1.0524781e-01
5.4863536e-02
2.3261187e-01
3.8739282e-01
4.9883939e-01
5.9123885e-01
7.1448825e-01
8.9839778e-01
1.1267834e+00
1.2511227e+00
1.0435531e+00
4.9568223e-01
-1.7529916e-01
-7.8095155e-01
-1.2408835e+00
-1.5377418e+00
-1.6959903e+00
-1.7649407e+00
-1.7725930e+00
-1.7048973e+00
-1.5334739e+00
-1.2460897e+00
-8.4762315e-01
-3.4805641e-01
2.4100427e-01
9.0373296e-01
1.6133284e+00
2.2907456e+00
2.7602498e+00
2.8215549e+00
2.4235349e+00
1.7289971e+00
9.8634341e-01
3.6407926e-01
-8.3722938e-02
-3.5800817e-01
-4.9151511e-01
-5.5912829e-01
-6.6050829e-01
-8.5481478e-01
-1.1066050e+00
-1.3185893e+00
-1.4103529e+00
-1.3543876e+00
-1.1766922e+00
-9.4535458e-01
-7.1985999e-01
-4.9983243e-01
-2.3971340e-01
9.8999109e-02
4.9634174e-01
8.4371126e-01
9.9829918e-01
9.0429970e-01
6.4352079e-01
3.5063134e-01
1.1778308e-01
-1.3949362e-02
-2.7745059e-02
8.3606645e-02
3.1538336e-01
6.4128127e-01
9.8411295e-01
1.2099071e+00
1.2055437e+00
9.7376399e-01
6.3359285e-01
3.2072257e-01
1.0858969e-01
1.9856073e-02
5.6410893e-02
1.8246969e-01
2.5818409e-01
1.0447128e-01
-2.7296590e-01
-6.8788304e-01
-9.8758820e-01
-1.1365297e+00
-1.1703398e+00
-1.1453310e+00
-1.1023206e+00
-1.0466741e+00
-9.5609345e-01
-8.1160362e-01
-6.1757903e-01
-3.8714886e-01
-1.2721300e-01
1.5241892e-01
4.0455885e-01
5.2831454e-01
4.3134655e-01
1.4134481e-01
-1.9474222e-01
-4.3843062e-01
-5.3029823e-01
-4.8717645e-01
-3.9174324e-01
-2.9293494e-01
-1.3790483e-01
1.2149840e-01
4.7642289e-01
9.0476181e-01
1.3896157e+00
1.9088431e+00
2.3953595e+00
2.6922455e+00
2.6166010e+00
2.1495319e+00
1.4644332e+00
7.4325696e-01
8.0315141e-02
-4.7512904e-01
-8.9054450e-01
-1.1680379e+00
-1.3528586e+00
-1.5093240e+00
-1.6873252e+00
-1.8906783e+00
-2.0583673e+00
-2.1032165e+00
-1.9841070e+00
-1.7204367e+00
-1.3609683e+00
-9.3921883e-01
-4.5290205e-01
1.0214512e-01
7.0805735e-01
1.3115891e+00
1.7832882e+00
1.9354358e+00
1.7045334e+00
1.2637451e+00
8.5198659e-01
5.9002392e-01
4.8803086e-01
5.1459758e-01
6.1663093e-01
6.1655530e-01
2.8087957e-01
-3.4292742e-01
-9.7590568e-01
-1.4308028e+00
-1.6702794e+00
-1.7214189e+00
-1.6303692e+00
-1.4419927e+00
-1.1755106e+00
-8.2387455e-01
-3.7930237e-01
1.4567613e-01
7.0153536e-01
1.1865792e+00
1.4672471e+00
1.4473559e+00
1.1404634e+00
6.6292060e-01
1.5904762e-01
-2.6193263e-01
-5.4533572e-01
-6.7630118e-01
-6.6611089e-01
-5.4277757e-01
-3.3748691e-01
-7.9762082e-02
1.9475757e-01
4.2903188e-01
5.3702257e-01
4.5351225e-01
2.1206825e-01
-5.6133833e-02
-2.1051989e-01
-1.8170174e-01
2.6049527e-02
3.7823930e-01
8.4119944e-01
1.3520680e+00
1.7292468e+00
1.7256401e+00
1.2877355e+00
6.3452381e-01
3.0558473e-02
-3.9803369e-01
-6.4454301e-01
-7.3779219e-01
-7.0459523e-01
-5.6523682e-01
-3.4927884e-01
-1.3003245e-01
-2.3839719e-02
-1.0761937e-01
-3.3668496e-01
-5.8297299e-01
-7.3979332e-01
-7.6256087e-01
-6.5452900e-01
-4.5932398e-01
-2.6722454e-01
-1.7043300e-01
-1.6294744e-01
-1.4365486e-01
-2.3832715e-02
2.1725098e-01
5.3447018e-01
8.2070138e-01
9.5001873e-01
8.7909678e-01
6.8369332e-01
4.5709082e-01
2.2728362e-01
-6.3773046e-03
-2.1995558e-01
-3.6979641e-01
-4.3636717e-01
-4.4333748e-01
-4.3196321e-01
-4.3556604e-01
-4.6988225e-01
-5.2130572e-01
-5.4912817e-01
-5.2173771e-01
-4.3795400e-01
-3.1002313e-01
-1.4485224e-01
5.6615127e-02
2.8811713e-01
5.3528665e-01
7.7284048e-01
9.4173627e-01
9.5124133e-01
7.6051123e-01
4.4920767e-01
1.5105090e-01
-5.4998411e-02
-1.6387810e-01
-2.0277717e-01
-1.9397320e-01
-1.5746907e-01
-1.3370565e-01
-1.8042454e-01
-3.3500250e-01
-5.8380673e-01
-8.6910604e-01
-1.1122282e+00
-1.2410726e+00
-1.2244781e+00
-1.0827517e+00
-8.6612056e-01
-6.2852387e-01
-4.0497912e-01
-1.9145864e-01
4.9599479e-02
3.3612353e-01
6.0926746e-01
7.4340461e-01
6.5305433e-01
3.9147147e-01
1.1025737e-01
-6.6482293e-02
-9.2515236e-02
3.8528273e-02
3.1599883e-01
7.1781113e-01
1.2012749e+00
1.6615282e+00
1.9456674e+00
1.9109311e+00
1.4733220e+00
7.3361104e-01
-2.7234791e-02
-5.8383189e-01
-8.6893558e-01
-9.0165117e-01
-7.3787125e-01
-4.3617039e-01
-4.2977787e-02
3.6241134e-01
6.3698907e-01
6.6884856e-01
4.9783300e-01
2.5106555e-01
1.0190730e-02
-2.1035155e-01
-4.1714095e-01
-5.8789035e-01
-6.7719801e-01
-6.6051912e-01
-5.5760581e-01
-4.3867767e-01
-3.9777041e-01
-4.7132358e-01
-5.9687618e-01
-6.8022781e-01
-6.6660978e-01
-5.4166202e-01
-3.1679705e-01
-3.2812278e-02
2.2693999e-01
3.7269000e-01
3.8809017e-01
3.2285965e-01
2.2700381e-01
1.3498254e-01
7.1753782e-02
3.6985856e-02
3.5596729e-03
-5.0291135e-02
-1.1832902e-01
-1.8019830e-01
-2.2025976e-01
-2.2476260e-01
-1.7252661e-01
-3.7946509e-02
1.7446489e-01
3.9092277e-01
4.8896404e-01
3.9721771e-01
1.7829099e-01
-2.3374753e-02
-1.0051935e-01
-2.9546903e-02
1.3288156e-01
2.5039538e-01
1.7913587e-01
-6.8558363e-02
-3.2112505e-01
-4.4412547e-01
-4.1942221e-01
-2.9796887e-01
-1.5721365e-01
-6.9642545e-02
-6.9575732e-02
-1.1670337e-01
-1.2386662e-01
-3.2556006e-02
1.6717941e-01
4.6625930e-01
8.4347531e-01
1.2331239e+00
1.4584327e+00
1.2968468e+00
7.2604251e-01
-1.7285660e-02
-6.6309219e-01
-1.0812964e+00
-1.2755736e+00
-1.3054109e+00
-1.2201513e+00
-1.0304519e+00
-7.2124879e-01
-2.9226123e-01
2.2908242e-01
7.9792296e-01
1.3583025e+00
1.7977811e+00
1.9384299e+00
1.7133678e+00
1.2638881e+00
7.7341132e-01
3.3241004e-01
-3.1586678e-02
-3.1008490e-01
-5.1406172e-01
-6.7020905e-01
-8.0108235e-01
-9.1680414e-01
-1.0118037e+00
-1.0713023e+00
-1.0932894e+00
-1.0871854e+00
-1.0586821e+00
-1.0109784e+00
-9.4685687e-01
-8.6344436e-01
-7.5149614e-01
-5.9987330e-01
-3.9979857e-01
-1.5705016e-01
9.7157091e-02
3.2090802e-01
4.8800275e-01
6.0024669e-01
6.8715466e-01
7.8637490e-01
8.9699648e-01
9.5098600e-01
8.7602087e-01
6.9941911e-01
5.3328029e-01
4.7302434e-01
5.5520585e-01
7.6571954e-01
1.0482584e+00
1.3142973e+00
1.4336845e+00
1.2781786e+00
8.5666016e-01
3.2241460e-01
-1.6798600e-01
-5.2978726e-01
-7.4256185e-01
-8.3821246e-01
-8.7670025e-01
-9.0944825e-01
-9.6278666e-01
-1.0388732e+00
-1.1188120e+00
-1.1711273e+00
-1.1763528e+00
-1.1428674e+00
-1.0955212e+00
-1.0509057e+00
-1.0030924e+00
-9.4001412e-01
-8.6454879e-01
-7.8482920e-01
-6.8821988e-01
-5.4159031e-01
-3.1589808e-01
-7.1922609e-04
3.9463936e-01
8.1295644e-01
1.1143165e+00
1.1546983e+00
9.5864121e-01
7.2235662e-01
6.1484248e-01
6.7785541e-01
8.6244161e-01
1.0528231e+00
1.0931900e+00
8.9683019e-01
5.4745159e-01
2.2437658e-01
4.7737344e-02
4.4573891e-02
2.0257383e-01
4.9455101e-01
8.6749879e-01
1.1854854e+00
1.2389846e+00
9.2245297e-01
3.7158099e-01
-1.4941302e-01
-4.7150220e-01
-5.7780415e-01
-5.1997876e-01
-3.6065640e-01
-1.7434616e-01
-5.7584641e-02
-6.0507639e-02
-1.2920990e-01
-1.9856582e-01
-2.7143922e-01
-3.7755288e-01
-5.1916750e-01
-6.6652605e-01
-7.7899251e-01
-8.2740042e-01
-8.0497393e-01
-7.1898898e-01
-5.8852201e-01
-4.4033775e-01
-3.1111324e-01
-2.5064881e-01
-2.9681353e-01
-4.3376195e-01
-5.8683408e-01
-6.7725714e-01
-6.6650904e-01
-5.5020218e-01
-3.4640985e-01
-8.9116332e-02
1.9161371e-01
4.8907614e-01
8.1692172e-01
1.1662894e+00
1.4598056e+00
1.5656134e+00
1.3891494e+00
9.6764678e-01
4.5319258e-01
-1.4771456e-02
-3.8627359e-01
-6.5748754e-01
-8.2624700e-01
-8.9015460e-01
-8.4979182e-01
-7.1565536e-01
-5.4096555e-01
-4.2900136e-01
-4.5876658e-01
-6.0041970e-01
-7.3196131e-01
-7.3934103e-01
-5.7524495e-01
-2.5876512e-01
1.0124775e-01
3.3881701e-01
3.9987066e-01
4.0455567e-01
5.0887766e-01
7.8679848e-01
1.2239097e+00
1.7566918e+00
2.2738926e+00
2.5705774e+00
2.4320418e+00
1.8602844e+00
1.0899501e+00
3.5378246e-01
-2.4771148e-01
-6.9523322e-01
-9.9621419e-01
-1.1743131e+00
-1.2621937e+00
-1.2923068e+00
-1.2905033e+00
-1.2645136e+00
-1.1962333e+00
-1.0635350e+00
-8.6793547e-01
-6.5737280e-01
-5.2895900e-01
-5.4499696e-01
-6.5294483e-01
-7.3952074e-01
-7.2844062e-01
-6.1238483e-01
-4.4506707e-01
-3.0294471e-01
-2.1733480e-01
-1.4849601e-01
-2.7544886e-02
1.8785475e-01
5.0546066e-01
9.2221576e-01
1.4255688e+00
1.9675306e+00
2.3884019e+00
2.4323001e+00
1.9621162e+00
1.1282682e+00
2.5864313e-01
-4.0261893e-01
-7.8579806e-01
-9.2160777e-01
-8.7542414e-01
-7.0938620e-01
-4.7325016e-01
-1.9782458e-01
1.1487672e-01
4.4735186e-01
6.9845085e-01
7.1943717e-01
4.6699874e-01
6.8059448e-02
-2.9943471e-01
-5.4049103e-01
-6.5144039e-01
-6.5919710e-01
-5.9537473e-01
-4.9309828e-01
-3.9099488e-01
-3.4001185e-01
-3.7567477e-01
-4.7440022e-01
-5.6107423e-01
-5.7062121e-01
-5.0007648e-01
-4.0527340e-01
-3.5119790e-01
-3.5620763e-01
-3.6995780e-01
-3.1892011e-01
-1.6651218e-01
8.0372138e-02
3.7934213e-01
6.3494703e-01
7.1390807e-01
5.5348394e-01
2.5063426e-01
-2.2251687e-02
-1.5926447e-01
-1.4402311e-01
-3.4530158e-03
2.2738152e-01
5.1674797e-01
8.2149380e-01
1.0581973e+00
1.1155586e+00
9.3243871e-01
5.6269233e-01
1.4909867e-01
-1.7388439e-01
-3.5309350e-01
-4.2393943e-01
-4.8675260e-01
-6.2283752e-01
-7.9492863e-01
-8.9338505e-01
-8.5543718e-01
-6.8775082e-01
-4.4315760e-01
-2.1836023e-01
-1.0970435e-01
-1.2015159e-01
-1.5366896e-01
-1.2788911e-01
-3.1582239e-02
1.1377347e-01
3.0100532e-01
5.5357910e-01
8.8269967e-01
1.2313088e+00
1.4539870e+00
1.3892101e+00
1.0152757e+00
4.9201480e-01
1.8550895e-02
-3.0427986e-01
-4.8274423e-01
-5.6748369e-01
-6.1158850e-01
-6.6707855e-01
-7.6763154e-01
-8.9016114e-01
-9.7584512e-01
-1.0091227e+00
-1.0247974e+00
-1.0468401e+00
-1.0566549e+00
-1.0189818e+00
-9.1504996e-01
-7.4335574e-01
-5.0462521e-01
-1.9273727e-01
1.8842533e-01
5.9940534e-01
9.2601248e-01
1.0065619e+00
7.7854333e-01
3.7341876e-01
1.8558892e-02
-1.4439044e-01
-9.8847206e-02
1.1930901e-01
4.5251714e-01
8.0479736e-01
1.0612644e+00
1.2406165e+00
1.4887592e+00
1.8344737e+00
2.1240097e+00
2.1213000e+00
1.6961987e+00
9.8768660e-01
2.7522260e-01
-2.6151232e-01
-5.8661128e-01
-7.2298845e-01
-7.1321171e-01
-6.1339456e-01
-4.9079639e-01
-4.2339063e-01
-4.7882209e-01
-6.6310553e-01
-8.9363997e-01
-1.0649788e+00
-1.1283525e+00
-1.0916809e+00
-9.8483889e-01
-8.4166119e-01
-6.9840492e-01
-5.8334592e-01
-4.9640696e-01
-4.1632381e-01
-3.2959284e-01
-2.3461887e-01
-1.2360749e-01
1.8896468e-02
2.0480297e-01
4.3780917e-01
6.9591986e-01
9.0311098e-01
9.6462477e-01
8.7593999e-01
7.3930829e-01
6.4439763e-01
5.8599215e-01
4.9600417e-01
3.3210383e-01
1.1697094e-01
-9.5617435e-02
-2.5525104e-01
-3.2957769e-01
-3.1492391e-01
-2.5250766e-01
-2.1117682e-01
-2.2287392e-01
-2.5838888e-01
-2.6705376e-01
-2.1502095e-01
-1.0152528e-01
2.6723011e-02
8.2353698e-02
1.0225244e-02
-1.4728647e-01
-3.0336015e-01
-4.0803281e-01
-4.5154352e-01
-4.3626925e-01
-3.6708223e-01
-2.6788006e-01
-1.9654886e-01
-2.1639575e-01
-3.3861223e-01
-5.0172002e-01
-6.1643965e-01
-6.2329883e-01
-5.1870888e-01
-3.7368096e-01
-2.8881900e-01
-2.6700292e-01
-2.0346391e-01
-7.5196909e-03
3.4155317e-01
8.1031227e-01
1.3068672e+00
1.6626367e+00
1.7134554e+00
1.4452245e+00
9.8576036e-01
4.8731925e-01
5.5295786e-02
-2.5660901e-01
-4.1430938e-01
-4.0322007e-01
-2.4758392e-01
-4.2880267e-02
3.8058153e-02
-1.3324717e-01
-4.9078303e-01
-8.2756821e-01
-9.9247176e-01
-9.5534047e-01
-7.4597985e-01
-4.0741517e-01
1.4377223e-02
4.5508410e-01
8.3298953e-01
1.0875129e+00
1.1880518e+00
1.1088128e+00
8.4141168e-01
4.4193238e-01
2.7119387e-02
-2.9837363e-01
-4.9148002e-01
-5.5432399e-01
-4.9614326e-01
-3.2360833e-01
-5.3978963e-02
2.5072616e-01
4.5578284e-01
4.1732528e-01
1.1642657e-01
-2.9031831e-01
-5.9946278e-01
-7.1435915e-01
-6.5240762e-01
-4.8235762e-01
-2.8794281e-01
-1.4066086e-01
-6.0663990e-02
-5.2118570e-03
7.8718598e-02
2.0150416e-01
3.7024387e-01
6.0976370e-01
8.6956353e-01
1.0001736e+00
8.6673052e-01
4.8054568e-01
5.8830887e-03
-3.8465824e-01
-6.1552023e-01
-6.8827158e-01
-6.3515172e-01
-5.2057089e-01
-4.5381292e-01
-5.2608287e-01
-7.1297938e-01
-8.8759918e-01
-9.3298533e-01
-8.1014081e-01
-5.4284369e-01
-2.1183876e-01
5.6741671e-02
2.0130135e-01
2.9365198e-01
4.5400763e-01
7.5154128e-01
1.1724607e+00
1.6014136e+00
1.8445582e+00
1.7592298e+00
1.3694083e+00
8.2171657e-01
2.6828569e-01
-1.9542683e-01
-5.2626842e-01
-7.0387321e-01
-7.3176262e-01
-6.5579122e-01
-5.7072857e-01
-5.8861182e-01
-7.5144042e-01
-9.8298898e-01
-1.1541035e+00
-1.1808090e+00
-1.0596789e+00
-8.4385640e-01
-5.8920705e-01
-3.0731451e-01
2.9481023e-02
4.4971717e-01
9.4988165e-01
1.4537649e+00
1.7877141e+00
1.7822994e+00
1.4377430e+00
9.1229241e-01
3.7531240e-01
-7.3444886e-02
-3.9464440e-01
-5.7425792e-01
-6.1749063e-01
-5.5397646e-01
-4.2578765e-01
-2.7169852e-01
-1.1460544e-01
4.4559109e-02
1.9790229e-01
2.8784194e-01
2.3897964e-01
4.8396095e-02
-1.8883477e-01
-3.6084009e-01
-4.2251196e-01
-3.9466264e-01
-3.1364275e-01
-2.0379204e-01
-9.3868589e-02
-2.4994294e-02
-2.2707704e-02
-7.9220558e-02
-1.6463184e-01
-2.4054508e-01
-2.7258000e-01
-2.5203902e-01
-2.0320201e-01
-1.5244099e-01
-1.0216357e-01
-5.0559859e-02
-1.3591724e-02
-5.1997004e-03
-9.4243211e-03
4.3071760e-03
4.9057288e-02
1.2251035e-01
2.1988815e-01
3.2176574e-01
3.8383186e-01
3.6932840e-01
2.8486991e-01
1.6014026e-01
1.8401593e-02
-1.1099852e-01
-1.8395179e-01
-1.6936766e-01
-7.2127946e-02
7.7698144e-02
2.3915121e-01
3.6119013e-01
4.0042519e-01
3.6269415e-01
3.1035251e-01
3.0543773e-01
3.5830616e-01
4.2942755e-01
4.5361605e-01
3.7065292e-01
1.7006607e-01
-8.6888586e-02
-3.0926688e-01
-4.4408541e-01
-5.0330549e-01
-5.2231159e-01
-5.0817952e-01
-4.4900381e-01
-3.4225477e-01
-1.9730331e-01
-2.6823965e-02
1.4758836e-01
2.7684531e-01
2.8221212e-01
1.3000815e-01
-9.4052449e-02
-2.6470148e-01
-3.2139927e-01
-2.7933731e-01
-2.1652941e-01
-2.3752230e-01
-3.9238224e-01
-6.2244767e-01
-8.1282272e-01
-8.8977958e-01
-8.4587540e-01
-7.1237058e-01
-5.3438722e-01
-3.5291602e-01
-1.8516175e-01
-8.3604812e-03
2.1718371e-01
5.0814954e-01
8.5475091e-01
1.2215967e+00
1.5143902e+00
1.5931289e+00
1.3843399e+00
9.6693021e-01
4.9432352e-01
7.0397714e-02
-2.6702389e-01
-5.0807952e-01
-6.4759911e-01
-6.8771012e-01
-6.4166646e-01
-5.2973264e-01
-3.8205148e-01
-2.3380011e-01
-1.0124165e-01
1.3086074e-02
7.8412882e-02
4.3607386e-02
-9.8376512e-02
-2.7841234e-01
-4.0379823e-01
-4.2927960e-01
-3.6160259e-01
-2.2955819e-01
-7.9667521e-02
1.6049350e-02
5.2960874e-03
-8.6189702e-02
-1.8272735e-01
-2.2484186e-01
-1.8549215e-01
-5.3782998e-02
1.6996523e-01
4.7291098e-01
8.2766033e-01
1.1608643e+00
1.3270989e+00
1.1793702e+00
7.1230725e-01
1.1408565e-01
-3.7756283e-01
-6.4282872e-01
-6.9069670e-01
-5.9591545e-01
-4.4177002e-01
-2.6887515e-01
-6.0084904e-02
2.2061721e-01
5.6877458e-01
8.9790374e-01
1.0825501e+00
1.0704511e+00
8.9830930e-01
6.2088983e-01
2.8143606e-01
-6.8272392e-02
-3.6193262e-01
-5.5354221e-01
-6.3885815e-01
-6.4937254e-01
-6.3938279e-01
-6.6110364e-01
-7.3024870e-01
-8.2354782e-01
-9.1852440e-01
-1.0038896e+00
-1.0504061e+00
-1.0170715e+00
-8.8707283e-01
-6.8084853e-01
-4.3846298e-01
-1.7621109e-01
1.3361168e-01
5.2530965e-01
9.9926487e-01
1.5002392e+00
1.8909072e+00
1.9980903e+00
1.7654136e+00
1.3147544e+00
8.1345785e-01
3.5496562e-01
-2.4800517e-02
-3.0179950e-01
-4.5731153e-01
-4.9473528e-01
-4.4512531e-01
-3.5889811e-01
-3.0087547e-01
-3.3148737e-01
-4.5666127e-01
-6.0545550e-01
-6.9402949e-01
-6.9068881e-01
-6.1083426e-01
-4.8760205e-01
-3.5720278e-01
-2.5259944e-01
-1.8640422e-01
-1.3112135e-01
-3.6305572e-02
1.3022338e-01
3.7099021e-01
6.5834676e-01
8.9955412e-01
9.3454379e-01
6.9668499e-01
2.9746399e-01
-1.1900556e-01
-4.5478637e-01
-6.6082130e-01
-7.3958460e-01
-7.1702662e-01
-6.2483428e-01
-4.8358774e-01
-2.9880877e-01
-8.1876041e-02
1.3404412e-01
3.0786216e-01
4.1411396e-01
4.3973518e-01
3.7218905e-01
2.2732117e-01
7.1678450e-02
-2.2778311e-02
-2.9585740e-02
3.1635605e-02
1.0972714e-01
1.3261761e-01
4.8539364e-02
-1.1676821e-01
-2.7000942e-01
-3.3036395e-01
-2.8189488e-01
-1.5537878e-01
8.9912035e-03
1.6617323e-01
2.5447033e-01
2.2891011e-01
1.1374935e-01
-2.0204300e-02
-1.1514889e-01
-1.4207283e-01
-9.5841978e-02
4.4846216e-03
1.2332537e-01
2.3825678e-01
3.4272704e-01
3.9637702e-01
3.2263251e-01
1.0572276e-01
-1.5498944e-01
-3.3807371e-01
-3.9820417e-01
-3.5895267e-01
-2.6082996e-01
-1.3342456e-01
-5.3553280e-05
1.1839625e-01
2.0678006e-01
2.5076056e-01
2.4591729e-01
2.2110790e-01
2.2479864e-01
2.7779877e-01
3.4225332e-01
3.5575527e-01
2.9395553e-01
1.6842279e-01
-1.3360975e-03
-1.7997082e-01
-3.1626310e-01
-3.7775059e-01
-3.6854703e-01
-3.0910505e-01
-2.2129766e-01
-1.3905781e-01
-1.0248435e-01
-1.1429669e-01
-1.3193498e-01
-1.2264830e-01
-9.9577882e-02
-9.0920045e-02
-9.8383862e-02
-1.0840131e-01
-1.1112895e-01
-9.1203581e-02
-3.1724755e-02
6.6110448e-02
1.8032103e-01
2.9391682e-01
3.9849165e-01
4.5502038e-01
4.0457938e-01
2.5488602e-01
9.4383755e-02
-9.0384706e-03
-6.5507172e-02
-1.1504379e-01
-1.6737304e-01
-2.1296627e-01
-2.6271627e-01
-3.2866055e-01
-3.8369944e-01
-3.8342582e-01
-3.1259791e-01
-1.8715448e-01
-3.7196390e-02
8.7130586e-02
1.2494314e-01
6.2055591e-02
-4.0685334e-02
-1.0687128e-01
-1.1039416e-01
-7.0862281e-02
-8.5412815e-03
7.4872629e-02
1.7178268e-01
2.4894563e-01
2.6287761e-01
1.8759001e-01
2.6473026e-02
-1.8336815e-01
-3.7325993e-01
-4.7986027e-01
-4.8888249e-01
-4.2531832e-01
-3.0783486e-01
-1.3187283e-01
1.1487675e-01
4.4071976e-01
8.2782132e-01
1.1907893e+00
1.3982119e+00
1.3954577e+00
1.2207017e+00
9.0495728e-01
4.8046237e-01
6.3854797e-03
-4.4628914e-01
-8.0358562e-01
-1.0175260e+00
-1.0763362e+00
-9.9009871e-01
-7.7736113e-01
-4.6089906e-01
-6.5080405e-02
3.7289744e-01
7.5947815e-01
9.4533538e-01
8.5519723e-01
5.8633673e-01
2.8824769e-01
2.4783004e-02
-2.0888878e-01
-4.2029128e-01
-5.8765210e-01
-6.8108904e-01
-6.9259962e-01
-6.3685836e-01
-5.4079269e-01
-4.3114158e-01
-3.1901052e-01
-2.0662131e-01
-1.1231921e-01
-6.0794667e-02
-4.6649848e-02
-3.6289136e-02
-1.2509743e-02
8.9348412e-03
1.4278990e-02
2.0482074e-02
5.8462630e-02
1.4085934e-01
2.5604736e-01
3.7779110e-01
4.6399767e-01
4.6461103e-01
3.6697041e-01
2.1483904e-01
5.3612887e-02
-1.0665150e-01
-2.5997980e-01
-3.7519038e-01
-4.1613167e-01
-3.7574156e-01
-2.8460751e-01
-2.0495613e-01
-2.1528233e-01
-3.5542211e-01
-5.6740805e-01
-7.3209681e-01
-7.6452102e-01
-6.5772482e-01
-4.6218982e-01
-2.2685676e-01
4.5290668e-02
3.8240896e-01
8.0526247e-01
1.2960376e+00
1.7502566e+00
1.9713940e+00
1.8039722e+00
1.2963166e+00
6.6421606e-01
1.0397101e-01
-2.9585098e-01
-5.2303429e-01
-6.0038008e-01
-5.6593052e-01
-4.6067768e-01
-3.2599643e-01
-2.1512786e-01
-1.7654045e-01
-2.0135397e-01
-2.2030452e-01
-1.8009707e-01
-1.0568442e-01
-7.7516602e-02
-1.4356603e-01
-2.7171509e-01
-3.9004679e-01
-4.4151409e-01
-4.0521002e-01
-2.9184966e-01
-1.2903418e-01
5.7606775e-02
2.4976221e-01
4.1777992e-01
5.1741598e-01
5.3532218e-01
5.1572629e-01
5.0591926e-01
4.9197056e-01
4.1512706e-01
2.4866760e-01
2.6934024e-02
-1.9435932e-01
-3.7567161e-01
-5.0204588e-01
-5.7385288e-01
-5.9630902e-01
-5.6841336e-01
-4.7757296e-01
-3.1033439e-01
-7.9561643e-02
1.6810730e-01
3.7035350e-01
4.6360559e-01
4.2027291e-01
2.9197669e-01
1.7240262e-01
1.0058618e-01
4.3526006e-02
-3.9711068e-02
-1.4037785e-01
-2.0700710e-01
-2.0212588e-01
-1.2163992e-01
1.7388821e-02
1.6712647e-01
2.3358533e-01
1.2154788e-01
-1.6793060e-01
-5.1494469e-01
-7.8059385e-01
-8.9809691e-01
-8.7386686e-01
-7.5390197e-01
-5.9695059e-01
-4.4430812e-01
-2.9847444e-01
-1.3522591e-01
6.9816264e-02
3.2795912e-01
6.3446307e-01
9.6003343e-01
1.2294207e+00
1.3325105e+00
1.1996792e+00
8.5979601e-01
4.1954194e-01
1.2771511e-04
-3.1530590e-01
-4.9874990e-01
-5.6900649e-01
-5.7031351e-01
-5.5205876e-01
-5.6238344e-01
-6.3082668e-01
-7.3154593e-01
-7.9268087e-01
-7.5837443e-01
-6.2460304e-01
-4.2620595e-01
-1.9401516e-01
7.8314499e-02
4.1760068e-01
8.3400310e-01
1.2805499e+00
1.6056536e+00
1.6127822e+00
1.2596212e+00
7.2639545e-01
2.2843000e-01
-1.3711908e-01
-3.6346164e-01
-4.6831756e-01
-4.6494038e-01
-3.6438881e-01
-1.9082237e-01
1.7714664e-03
1.3111623e-01
1.3227148e-01
1.4343917e-02
-1.4914375e-01
-2.9337114e-01
-3.9646548e-01
-4.4966609e-01
-4.2780037e-01
-3.0073272e-01
-6.6991177e-02
2.3623421e-01
5.3248724e-01
7.1003829e-01
6.8184980e-01
4.7251164e-01
2.0415057e-01
-2.6313357e-02
-2.0485191e-01
-3.5384824e-01
-4.7746188e-01
-5.4971606e-01
-5.4577340e-01
-4.6806456e-01
-3.5270142e-01
-2.6304326e-01
-2.5169267e-01
-3.0690468e-01
-3.5991920e-01
-3.5477647e-01
-2.7902952e-01
-1.4383253e-01
2.0138645e-02
1.5006428e-01
1.7735987e-01
9.9422140e-02
-5.7362681e-03
-5.8317111e-02
-3.7133140e-02
3.8125547e-02
1.4876443e-01
2.8734743e-01
4.5156797e-01
6.4480742e-01
8.5938229e-01
1.0406320e+00
1.0835978e+00
9.0807571e-01
5.3992094e-01
8.0100185e-02
-3.7780642e-01
-7.6988556e-01
-1.0526326e+00
-1.2047168e+00
-1.2345197e+00
-1.1718508e+00
-1.0479147e+00
-8.9171450e-01
-7.2914794e-01
-5.5836572e-01
-3.3688119e-01
-1.7611317e-02
4.0947904e-01
9.0715698e-01
1.3957284e+00
1.7596407e+00
1.8710215e+00
1.6494420e+00
1.1476157e+00
5.4823659e-01
3.3609144e-02
-3.0256971e-01
-4.4391047e-01
-4.2162470e-01
-2.8972808e-01
-9.5038955e-02
1.3726822e-01
3.8152439e-01
5.8933065e-01
6.6926250e-01
5.3086681e-01
2.0209334e-01
-1.8676116e-01
-5.1965068e-01
-7.3228922e-01
-8.0539855e-01
-7.7186492e-01
-7.0147193e-01
-6.5296945e-01
-6.4011729e-01
-6.3983280e-01
-6.2205926e-01
-5.6758623e-01
-4.7597131e-01
-3.6254089e-01
-2.4533531e-01
-1.3556649e-01
-3.8373210e-02
3.5945029e-02
7.9276462e-02
1.0696866e-01
1.4435841e-01
1.9088290e-01
2.2110149e-01
2.2157173e-01
2.0470387e-01
1.9474789e-01
2.1578804e-01
2.7932833e-01
3.7247790e-01
4.6606257e-01
5.4496961e-01
6.0619518e-01
6.1331196e-01
4.9987128e-01
2.5408528e-01
-3.7672174e-02
-2.7061553e-01
-4.0555496e-01
-4.6014505e-01
-4.6083753e-01
-4.2035162e-01
-3.4608114e-01
-2.5159366e-01
-1.5963045e-01
-1.0321280e-01
-1.0960054e-01
-1.6371916e-01
-2.0927123e-01
-2.0278250e-01
-1.5324209e-01
-9.6515446e-02
-4.4048349e-02
2.5748642e-02
1.4414791e-01
3.3272310e-01
5.8790320e-01
8.5109212e-01
9.9271597e-01
9.1040983e-01
6.5079208e-01
3.4287323e-01
6.8000574e-02
-1.5463912e-01
-3.2849506e-01
-4.5412082e-01
-5.3358843e-01
-5.7974954e-01
-6.0555694e-01
-6.1400306e-01
-5.9667505e-01
-5.3690734e-01
-4.3363310e-01
-3.3393443e-01
-3.1526134e-01
-3.9368581e-01
-4.9369403e-01
-5.4011491e-01
-5.1769704e-01
-4.4262626e-01
-3.1364657e-01
-1.0358596e-01
2.0381324e-01
5.8523577e-01
9.7697254e-01
1.2799911e+00
1.3887496e+00
1.2633962e+00
9.7192223e-01
6.3131154e-01
3.2638322e-01
1.0030835e-01
-2.5854277e-02
-5.1305039e-02
2.1596614e-03
1.0210019e-01
2.1021632e-01
2.6717312e-01
2.0801260e-01
2.3512128e-02
-2.1409963e-01
-4.1811070e-01
-5.5713719e-01
-6.4396617e-01
-6.8813070e-01
-6.8193306e-01
-6.2760908e-01
-5.4894957e-01
-4.7064694e-01
-4.0717643e-01
-3.6294723e-01
-3.2721287e-01
-2.7675722e-01
-1.9514787e-01
-8.7230493e-02
2.9978022e-02
1.4337623e-01
2.3827253e-01
2.8142779e-01
2.4340457e-01
1.5057331e-01
7.8538122e-02
9.0676416e-02
2.0217587e-01
3.7043147e-01
4.9183998e-01
4.4754665e-01
2.5328256e-01
5.7025172e-02
-5.8111368e-02
-8.6295107e-02
-2.7082706e-02
1.0726647e-01
2.8000562e-01
4.2534581e-01
4.8947295e-01
4.7103413e-01
3.9204864e-01
2.6083389e-01
8.8658490e-02
-7.9326485e-02
-1.7896216e-01
-1.7390254e-01
-7.2617775e-02
7.3867059e-02
1.7330882e-01
1.3599684e-01
-4.0061747e-02
-2.6072108e-01
-4.3706573e-01
-5.4775743e-01
-6.0617822e-01
-6.1762463e-01
-5.7539826e-01
-4.8064798e-01
-3.4951070e-01
-2.0493055e-01
-7.9619236e-02
-1.3190593e-02
-1.3123819e-02
-3.2795156e-02
-1.5314272e-02
6.2119538e-02
1.9572124e-01
3.7495854e-01
5.7375409e-01
7.2204246e-01
7.2851001e-01
5.5813308e-01
2.5361365e-01
-1.0517721e-01
-4.3887154e-01
-6.8989489e-01
-8.3200395e-01
-8.7986160e-01
-8.7319197e-01
-8.3669110e-01
-7.7222441e-01
-6.7693234e-01
-5.4395245e-01
-3.5065651e-01
-6.5434662e-02
3.2460568e-01
7.9710046e-01
1.2986788e+00
1.7420543e+00
2.0072807e+00
1.9894539e+00
1.6678624e+00
1.1281464e+00
5.2053345e-01
-1.4931972e-02
-4.0114226e-01
-6.2473039e-01
-7.1744623e-01
-7.3165001e-01
-7.1513800e-01
-7.0371648e-01
-7.1823262e-01
-7.4924610e-01
-7.5401743e-01
-6.9041189e-01
-5.5058916e-01
-3.5920489e-01
-1.5480971e-01
1.7606494e-02
1.1392916e-01
1.1681515e-01
5.5034648e-02
-1.5098575e-02
-4.3841380e-02
-1.3745575e-03
1.1145034e-01
2.4231882e-01
2.9856740e-01
2.2788920e-01
7.2037367e-02
-9.9691995e-02
-2.5818804e-01
-3.9185110e-01
-4.6594731e-01
-4.3137797e-01
-2.6300572e-01
1.7437546e-02
3.2673136e-01
5.2550784e-01
4.9263607e-01
2.4028383e-01
-7.0124902e-02
-2.6171990e-01
-2.5373022e-01
-5.4162593e-02
2.7596943e-01
6.4177840e-01
9.4871489e-01
1.1470570e+00
1.2249117e+00
1.1471897e+00
8.5294587e-01
3.4866196e-01
-2.3115682e-01
-7.0990944e-01
-9.9532423e-01
-1.0923733e+00
-1.0557485e+00
-9.6528420e-01
-9.0699760e-01
-9.1617882e-01
-9.3799542e-01
-8.8752428e-01
-7.2182787e-01
-4.4220690e-01
-7.0357829e-02
3.5072182e-01
7.3358448e-01
1.0572567e+00
1.4116044e+00
1.7617406e+00
1.8780447e+00
1.5711966e+00
9.1998513e-01
2.0242862e-01
-3.6899601e-01
-7.3436875e-01
-9.1857850e-01
-9.6697129e-01
-9.1691642e-01
-7.9503371e-01
-6.2015351e-01
-4.1429946e-01
-2.0984686e-01
-3.7641684e-02
8.2724759e-02
1.4236825e-01
1.5683096e-01
1.7011080e-01
2.0431221e-01
2.1149732e-01
1.2073373e-01
-5.9422515e-02
-2.2232574e-01
-2.5770793e-01
-1.2609201e-01
1.5125799e-01
5.1809136e-01
8.8557949e-01
1.1333818e+00
1.1576312e+00
9.4320681e-01
5.6943074e-01
1.5707579e-01
-1.8892255e-01
-4.0832639e-01
-4.8291265e-01
-4.4039535e-01
-3.6225473e-01
-3.5116918e-01
-4.5878047e-01
-6.4422161e-01
-8.1152793e-01
-8.8479842e-01
-8.4127458e-01
-7.0295197e-01
-5.1346159e-01
-2.9875276e-01
-5.5025146e-02
2.2560925e-01
5.4233149e-01
8.7013599e-01
1.1177883e+00
1.1532650e+00
9.3093661e-01
5.5480156e-01
1.7071222e-01
-1.4404518e-01
-3.7221584e-01
-5.1521397e-01
-5.7616478e-01
-5.6388458e-01
-4.9511077e-01
-3.9632832e-01
-3.1402311e-01
-2.9710057e-01
-3.4613298e-01
-4.0368627e-01
-4.1295265e-01
-3.5920542e-01
-2.5842273e-01
-1.3676482e-01
-2.2964579e-02
5.8206536e-02
1.0898829e-01
1.6736110e-01
2.7242919e-01
4.2752342e-01
5.9340866e-01
7.0188698e-01
6.8515333e-01
5.2536738e-01
2.8855009e-01
8.3707096e-02
-1.7283068e-02
-1.2574291e-02
5.4867755e-02
1.3102732e-01
1.5695259e-01
8.0665853e-02
-9.3208573e-02
-2.8771161e-01
-4.2257337e-01
-4.7670860e-01
-4.7430415e-01
-4.3968066e-01
-3.7787095e-01
-2.8280397e-01
-1.4698803e-01
2.4295358e-02
1.9287352e-01
2.9796687e-01
3.1248459e-01
2.7156830e-01
2.2344512e-01
1.8807536e-01
1.7637790e-01
2.0755309e-01
2.8432420e-01
3.5640974e-01
3.4488011e-01
2.2856838e-01
6.9000902e-02
-5.5332084e-02
-1.0322935e-01
-7.2543412e-02
1.4662436e-02
1.1830779e-01
1.9517298e-01
2.2899455e-01
2.3404859e-01
2.3606457e-01
2.6359565e-01
3.3000522e-01
3.9508765e-01
3.4425543e-01
1.0848519e-01
-2.3459989e-01
-5.7321207e-01
-8.4242242e-01
-1.0177570e+00
-1.1135375e+00
-1.1657127e+00
-1.2128304e+00
-1.2654709e+00
-1.2927652e+00
-1.2551297e+00
-1.1440560e+00
-9.9103433e-01
-8.2855715e-01
-6.4163105e-01
-3.8387329e-01
-2.1134321e-02
4.4859734e-01
9.7625096e-01
1.4119732e+00
1.5498702e+00
1.3412437e+00
9.7830542e-01
7.0617671e-01
6.4376242e-01
7.8412679e-01
1.0471628e+00
1.2728208e+00
1.2651060e+00
9.6063373e-01
5.0038358e-01
9.1705942e-02
-1.4816591e-01
-2.0874792e-01
-1.1865830e-01
8.7186557e-02
3.6080070e-01
6.0217446e-01
6.5683448e-01
4.3387915e-01
2.1209429e-02
-3.7873053e-01
-6.2457328e-01
-7.0431446e-01
-6.9033075e-01
-6.7601919e-01
-7.0342560e-01
-7.3872894e-01
-7.2864646e-01
-6.5220535e-01
-5.2854050e-01
-4.1187855e-01
-3.5009288e-01
-3.3548906e-01
-3.2823975e-01
-3.0377890e-01
-2.5279228e-01
-1.6216843e-01
-1.4795350e-02
1.9043479e-01
4.1692868e-01
5.8016672e-01
5.7603276e-01
3.6475278e-01
2.4734776e-02
-3.0342761e-01
-5.1591589e-01
-5.9825217e-01
-6.0069333e-01
-5.5578496e-01
-4.3924137e-01
-2.1174123e-01
1.4415439e-01
6.1470927e-01
1.1174324e+00
1.4680008e+00
1.4984051e+00
1.2305176e+00
8.2528799e-01
4.1032167e-01
2.5419652e-02
-3.1774104e-01
-5.7864288e-01
-7.1050230e-01
-7.0181179e-01
-5.7264530e-01
-3.5113235e-01
-7.1452251e-02
2.0004441e-01
3.4584420e-01
2.5948365e-01
-3.5309479e-02
-3.7930569e-01
-6.0843094e-01
-6.4504519e-01
-4.9583176e-01
-2.1815237e-01
1.1318604e-01
4.2193052e-01
6.5850130e-01
8.4530570e-01
1.0534914e+00
1.3025291e+00
1.5024464e+00
1.4995599e+00
1.2054509e+00
6.8926221e-01
1.1712350e-01
-3.8284647e-01
-7.6815005e-01
-1.0383313e+00
-1.2136982e+00
-1.3319166e+00
-1.4235762e+00
-1.4927403e+00
-1.5226301e+00
-1.4901051e+00
-1.3762539e+00
-1.1768943e+00
-9.0597440e-01
-5.8894629e-01
-2.3441241e-01
1.8201214e-01
6.8315877e-01
1.2511431e+00
1.7991158e+00
2.1709612e+00
2.2295554e+00
1.9811725e+00
1.5384657e+00
9.9909305e-01
4.5055490e-01
-3.1864948e-02
-4.1568147e-01
-6.9504541e-01
-8.8450575e-01
-1.0084269e+00
-1.0817817e+00
-1.1099649e+00
-1.0970936e+00
-1.0424493e+00
-9.3289028e-01
-7.4707610e-01
-4.7717135e-01
-1.4093306e-01
2.2713372e-01
5.7560047e-01
8.3578497e-01
9.7127870e-01
1.0161768e+00
1.0079201e+00
9.2351434e-01
7.2363180e-01
4.2651436e-01
1.0394397e-01
-1.8128620e-01
-4.0652895e-01
-5.7548572e-01
-6.9890936e-01
-7.9115958e-01
-8.6463327e-01
-9.2064639e-01
-9.5544585e-01
-9.6592620e-01
-9.4418662e-01
-8.7909988e-01
-7.7111975e-01
-6.4283720e-01
-5.1616434e-01
-3.8178268e-01
-2.0858754e-01
2.8980648e-02
3.4018045e-01
7.2408060e-01
1.1687035e+00
1.6119544e+00
1.9139844e+00
1.9362962e+00
1.6566682e+00
1.1820032e+00
6.6570076e-01
2.2901071e-01
-6.4030384e-02
-2.0405573e-01
-2.1729626e-01
-1.4617165e-01
-5.3353796e-02
-2.8558966e-02
-1.5098169e-01
-4.2236673e-01
-7.5780216e-01
-1.0473111e+00
-1.2149521e+00
-1.2385289e+00
-1.1373833e+00
-9.5466238e-01
-7.3686908e-01
-4.9845981e-01
-2.1443496e-01
1.4195837e-01
5.6709468e-01
1.0099961e+00
1.3548826e+00
1.4580253e+00
1.2566069e+00
8.3041945e-01
3.2961182e-01
-1.2899040e-01
-4.8712276e-01
-7.1931902e-01
-8.1914496e-01
-8.1716731e-01
-7.7710953e-01
-7.4072168e-01
-6.8940169e-01
-5.7024808e-01
-3.4074542e-01
9.7755238e-03
4.4867625e-01
8.5652160e-01
1.0270269e+00
8.4514376e-01
4.4761978e-01
9.4154928e-02
-6.0311641e-02
-5.4502267e-03
1.9046211e-01
4.1617070e-01
5.6233256e-01
5.7800208e-01
4.7063952e-01
2.8170173e-01
7.4269179e-02
-8.1870800e-02
-1.2442000e-01
-2.1584492e-02
2.1362902e-01
4.8981591e-01
6.1767949e-01
4.3629419e-01
-5.4067006e-03
-4.7639261e-01
-7.7950697e-01
-8.6381728e-01
-7.8229936e-01
-6.2477393e-01
-4.5715280e-01
-2.9198319e-01
-1.1083806e-01
1.1023420e-01
3.8315994e-01
6.7438041e-01
9.0122554e-01
9.9314926e-01
9.4575738e-01
8.0470950e-01
5.6787947e-01
1.9029862e-01
-2.6122141e-01
-6.4028330e-01
-8.7117213e-01
-9.6239241e-01
-9.5590686e-01
-8.9917160e-01
-8.3185357e-01
-7.7731085e-01
-7.4438116e-01
-7.2301686e-01
-6.7765376e-01
-5.6097562e-01
-3.3990983e-01
-1.2383347e-02
3.9845611e-01
8.5115774e-01
1.2491475e+00
1.4228416e+00
1.2553632e+00
8.2623644e-01
3.2888969e-01
-9.8531543e-02
-4.0734545e-01
-5.9682856e-01
-6.7818172e-01
-6.6333385e-01
-5.6584021e-01
-3.9914133e-01
-1.7946297e-01
6.6338702e-02
2.9251037e-01
4.2352573e-01
3.7523122e-01
1.3581896e-01
-1.9013457e-01
-4.5892558e-01
-5.9089851e-01
-5.8790932e-01
-4.9231004e-01
-3.3538826e-01
-1.1039531e-01
2.0319766e-01
6.0417955e-01
1.0439701e+00
1.3966961e+00
1.5002591e+00
1.3057911e+00
9.3605652e-01
5.4439377e-01
1.9916942e-01
-8.2718035e-02
-2.7924622e-01
-3.6330846e-01
-3.3597260e-01
-2.4492670e-01
-1.6690750e-01
-1.6677960e-01
-2.6185642e-01
-4.0914985e-01
-5.3124746e-01
-5.7450784e-01
-5.3424143e-01
-4.3503548e-01
-3.1419346e-01
-2.1858002e-01
-1.9148352e-01
-2.3280308e-01
-2.8648967e-01
-2.9257602e-01
-2.3174647e-01
-1.1786686e-01
2.2496920e-02
1.5212421e-01
2.2865710e-01
2.3884071e-01
2.0971288e-01
1.6354275e-01
9.2034280e-02
-7.1043329e-03
-1.0258219e-01
-1.5902846e-01
-1.6556186e-01
-1.2707145e-01
-5.5298248e-02
1.9418099e-02
5.3969828e-02
3.6544345e-02
-1.0104932e-03
-2.9712635e-02
-5.2051173e-02
-7.4567829e-02
-7.6707960e-02
-2.7517485e-02
8.2982741e-02
2.3831501e-01
3.8842014e-01
4.4071995e-01
3.0498053e-01
-1.0934219e-02
-3.8032951e-01
-6.6883579e-01
-8.2605617e-01
-8.6789290e-01
-8.2601360e-01
-7.2727804e-01
-5.9318485e-01
-4.3046712e-01
-2.3502734e-01
-2.8413154e-02
1.3183839e-01
2.2067739e-01
3.1097892e-01
5.1545868e-01
8.8725762e-01
1.4156276e+00
2.0522352e+00
2.6507416e+00
2.9289526e+00
2.6584468e+00
1.9262812e+00
1.0653749e+00
3.4232416e-01
-1.6108888e-01
-4.7047356e-01
-6.4228867e-01
-7.3262746e-01
-8.3867847e-01
-1.0680477e+00
-1.3981434e+00
-1.7091196e+00
-1.9273268e+00
-2.0487159e+00
-2.0916689e+00
-2.0682883e+00
-1.9778386e+00
-1.8111573e+00
-1.5641585e+00
-1.2403082e+00
-8.4469074e-01
-3.7585005e-01
1.7125672e-01
7.9415218e-01
1.4818867e+00
2.1904843e+00
2.7772031e+00
3.0210285e+00
2.7935632e+00
2.1919832e+00
1.4545322e+00
7.7639420e-01
2.4275314e-01
-1.3005522e-01
-3.4928096e-01
-4.3754483e-01
-4.3942685e-01
-4.2628404e-01
-4.8276766e-01
-6.4959879e-01
-8.7764260e-01
-1.0652706e+00
-1.1476572e+00
-1.1448101e+00
-1.1360325e+00
-1.1686188e+00
-1.1945497e+00
-1.1274243e+00
-9.2639104e-01
-6.1582895e-01
-2.7139668e-01
1.0732482e-02
1.8230647e-01
2.8864045e-01
4.1456354e-01
6.1367845e-01
9.0509306e-01
1.2897865e+00
1.7417057e+00
2.1572953e+00
2.3209684e+00
2.0245527e+00
1.2768633e+00
3.3088466e-01
-5.2247007e-01
-1.1270654e+00
-1.4569407e+00
-1.5589132e+00
-1.5034502e+00
-1.3343532e+00
-1.0534896e+00
-6.4805041e-01
-1.1700372e-01
5.2086032e-01
1.2057840e+00
1.7901281e+00
2.0529397e+00
1.8599794e+00
1.3007743e+00
6.1183024e-01
-1.4682705e-02
-5.0471570e-01
-8.4394663e-01
-1.0387520e+00
-1.1126750e+00
-1.1020886e+00
-1.0566278e+00
-1.0300722e+00
-1.0417936e+00
-1.0569682e+00
-1.0269460e+00
-9.2840751e-01
-7.5569503e-01
-4.9690286e-01
-1.3216482e-01
3.4194597e-01
8.9958238e-01
1.4542723e+00
1.8072458e+00
1.7553959e+00
1.3382755e+00
8.1609606e-01
3.7613048e-01
4.0270198e-02
-2.3055272e-01
-4.6054519e-01
-6.3350913e-01
-7.1931278e-01
-7.0642637e-01
-6.0785218e-01
-4.5758630e-01
-3.0324064e-01
-1.9164259e-01
-1.5528935e-01
-1.9700301e-01
-2.7020076e-01
-2.9423137e-01
-2.1534195e-01
-5.1190215e-02
1.0410782e-01
1.5283601e-01
1.1691693e-01
1.1985634e-01
2.5150320e-01
5.1569253e-01
8.3223470e-01
1.0379411e+00
9.8195019e-01
6.8485994e-01
3.3092494e-01
7.7658047e-02
-3.4517348e-02
-2.5211587e-02
7.7556401e-02
2.4350706e-01
4.1829702e-01
4.9769734e-01
3.8356531e-01
9.5559507e-02
-2.5034381e-01
-5.4539060e-01
-7.2635430e-01
-7.8135811e-01
-7.5482990e-01
-7.1446907e-01
-6.9771602e-01
-6.9816675e-01
-6.8721774e-01
-6.3801274e-01
-5.4110996e-01
-4.1583742e-01
-3.0127542e-01
-2.2401206e-01
-1.7107670e-01
-9.8004759e-02
2.9290760e-02
2.1368175e-01
4.4785074e-01
7.2676936e-01
1.0114237e+00
1.1885212e+00
1.1303889e+00
8.2314491e-01
3.9516126e-01
8.1956323e-03
-2.4794161e-01
-3.5750145e-01
-3.4640294e-01
-2.5719343e-01
-1.1778756e-01
5.6050899e-02
2.2418576e-01
3.3415189e-01
3.7464131e-01
3.5376061e-01
2.5255502e-01
5.1601238e-02
-2.1940272e-01
-4.9013665e-01
-7.0020499e-01
-8.2480021e-01
-8.6739892e-01
-8.4281416e-01
-7.6941457e-01
-6.6276986e-01
-5.3777606e-01
-4.2426926e-01
-3.6185627e-01
-3.6501999e-01
-4.0824601e-01
-4.5453761e-01
-4.7458179e-01
-4.3655178e-01
-3.0590019e-01
-6.2378810e-02
2.9037463e-01
7.3358882e-01
1.2473811e+00
1.7920518e+00
2.2474797e+00
2.4288456e+00
2.2435583e+00
1.7714773e+00
1.1627088e+00
5.3058922e-01
-5.4851531e-02
-5.3678062e-01
-8.7762723e-01
-1.0720829e+00
-1.1404947e+00
-1.1204112e+00
-1.0578618e+00
-9.8439467e-01
-9.0964375e-01
-8.4605454e-01
-8.1080242e-01
-7.9534831e-01
-7.5349311e-01
-6.3412088e-01
-4.1877993e-01
-1.2427932e-01
2.1053571e-01
5.2713652e-01
7.5086648e-01
8.3487860e-01
7.9993948e-01
7.0125740e-01
5.7814476e-01
4.5262729e-01
3.5005948e-01
2.9308911e-01
2.8817059e-01
3.3108174e-01
3.9524639e-01
4.0282455e-01
2.5084954e-01
-8.7468131e-02
-5.0933015e-01
-8.7102908e-01
-1.0972045e+00
-1.1889853e+00
-1.1763938e+00
-1.0812213e+00
-9.1374301e-01
-6.8127826e-01
-3.8413121e-01
-2.2340208e-02
3.7992657e-01
7.8431576e-01
1.1639827e+00
1.4666503e+00
1.5842934e+00
1.4175911e+00
9.8774272e-01
4.4971919e-01
-2.7735228e-02
-3.5537876e-01
-5.1616585e-01
-5.2795998e-01
-4.2666656e-01
-2.5295832e-01
-5.2596536e-02
9.7782663e-02
9.9706759e-02
-9.7521254e-02
-4.4077347e-01
-7.9103775e-01
-1.0052336e+00
-1.0170649e+00
-8.3640074e-01
-5.0090566e-01
-6.0085597e-02
4.2894034e-01
9.0724205e-01
1.2961844e+00
1.4916208e+00
1.4138390e+00
1.0878182e+00
6.4791181e-01
2.3820661e-01
-6.9724362e-02
-2.6903532e-01
-3.7450500e-01
-4.0560338e-01
-3.8218705e-01
-3.2526489e-01
-2.6570776e-01
-2.3041722e-01
-2.1199373e-01
-1.7924962e-01
-1.3059573e-01
-1.1210979e-01
-1.6154547e-01
-2.5662233e-01
-3.4929719e-01
-4.1650490e-01
-4.5447601e-01
-4.6249928e-01
-4.4980900e-01
-4.3690136e-01
-4.3077256e-01
-4.0902372e-01
-3.4579015e-01
-2.4710793e-01
-1.4418161e-01
-5.7694169e-02
1.1801534e-02
7.3123709e-02
1.4421732e-01
2.5227283e-01
4.1828884e-01
6.2447132e-01
7.9600550e-01
8.2960240e-01
6.5803729e-01
3.1446680e-01
-6.7374930e-02
-3.3777611e-01
-4.1625156e-01
-3.1178233e-01
-9.7498999e-02
1.3299715e-01
3.1520651e-01
4.4235972e-01
5.5568756e-01
6.9660937e-01
8.4210261e-01
9.0273362e-01
8.0808549e-01
5.7094971e-01
2.5603716e-01
-7.4639968e-02
-3.7390946e-01
-6.0181769e-01
-7.2751268e-01
-7.5359007e-01
-7.3603464e-01
-7.6169803e-01
-8.8241786e-01
-1.0621794e+00
-1.2065788e+00
-1.2342290e+00
-1.1110019e+00
-8.6745957e-01
-5.9968870e-01
-3.9366827e-01
-2.3393444e-01
-2.7733540e-02
2.9530655e-01
7.4115851e-01
1.2549276e+00
1.6889533e+00
1.8257199e+00
1.5605259e+00
1.0315838e+00
4.9331944e-01
1.1125178e-01
-7.5136153e-02
-7.8387497e-02
7.0569331e-02
3.1983616e-01
5.7118539e-01
6.7834898e-01
5.3710488e-01
1.9386519e-01
-1.7611229e-01
-4.2068184e-01
-4.9553758e-01
-4.2640275e-01
-2.5989976e-01
-5.2081341e-02
1.2095809e-01
1.8677289e-01
1.2483310e-01
-2.9455290e-02
-2.1499945e-01
-3.7409077e-01
-4.7242414e-01
-5.0611253e-01
-4.9684703e-01
-4.6925609e-01
-4.3266275e-01
-3.9539281e-01
-3.8182314e-01
-4.0582688e-01
-4.3589291e-01
-4.2007702e-01
-3.2879854e-01
-1.6074715e-01
5.8798600e-02
2.5777253e-01
3.1724215e-01
2.2901490e-01
1.4070010e-01
1.4001246e-01
2.2158533e-01
3.7734112e-01
5.9790221e-01
8.5353269e-01
1.0572981e+00
1.0977885e+00
9.4533966e-01
6.6035462e-01
3.0792196e-01
-7.2825894e-02
-4.3728905e-01
-7.2646657e-01
-9.0395892e-01
-9.7530913e-01
-9.7285413e-01
-9.3996208e-01
-9.2159408e-01
-9.4161706e-01
-9.7847438e-01
-9.7972686e-01
-8.9847230e-01
-7.1047068e-01
-4.1167134e-01
-6.8821498e-03
4.8879849e-01
1.0400971e+00
1.5759962e+00
1.9527069e+00
1.9879661e+00
1.6250672e+00
1.0276177e+00
4.3137950e-01
-3.3130687e-02
-3.4712283e-01
-5.4007968e-01
-6.4586376e-01
-6.8836538e-01
-6.8231511e-01
-6.3265463e-01
-5.4031440e-01
-4.1117932e-01
-2.6023377e-01
-1.2349157e-01
-6.1977915e-02
-1.2691912e-01
-3.1066715e-01
-5.4230119e-01
-7.3980903e-01
-8.4954335e-01
-8.4144037e-01
-7.0054933e-01
-4.3079584e-01
-6.1003841e-02
3.6800839e-01
8.3002101e-01
1.2987024e+00
1.6889794e+00
1.8538692e+00
1.6919088e+00
1.2409495e+00
6.4940493e-01
6.8804015e-02
-4.0666141e-01
-7.2238115e-01
-8.5955803e-01
-8.4414342e-01
-7.4695007e-01
-6.7096849e-01
-6.9518093e-01
-8.0228448e-01
-8.8013593e-01
-8.1761002e-01
-5.7708661e-01
-1.8321675e-01
3.1436231e-01
8.5673785e-01
1.3564143e+00
1.6874342e+00
1.7477746e+00
1.5394177e+00
1.1651781e+00
7.4483700e-01
3.5228721e-01
2.0508476e-02
-2.4113515e-01
-4.3426546e-01
-5.5838268e-01
-6.1205926e-01
-6.0344146e-01
-5.5302846e-01
-4.9844759e-01
-4.9837820e-01
-5.9955143e-01
-7.8698918e-01
-9.8143944e-01
-1.0960454e+00
-1.0878987e+00
-9.5982495e-01
-7.3928334e-01
-4.5878610e-01
-1.4280996e-01
1.9943150e-01
5.7775323e-01
1.0013298e+00
1.4271364e+00
1.7177950e+00
1.7118828e+00
1.3698319e+00
8.0182194e-01
1.5843411e-01
-4.5016318e-01
-9.4617998e-01
-1.2805382e+00
-1.4470315e+00
-1.4753049e+00
-1.4097921e+00
-1.2910297e+00
-1.1380224e+00
-9.3932327e-01
-6.7282620e-01
-3.2400591e-01
1.1122039e-01
5.9507920e-01
9.8289293e-01
1.0606502e+00
8.5709107e-01
6.7203482e-01
6.6584609e-01
8.2120449e-01
1.1091499e+00
1.4987848e+00
1.9441177e+00
2.3251486e+00
2.4302216e+00
2.1003129e+00
1.4041297e+00
5.8125384e-01
-1.6858745e-01
-7.5653179e-01
-1.1492394e+00
-1.3457127e+00
-1.3787372e+00
-1.3131306e+00
-1.2310088e+00
-1.1855580e+00
-1.1557065e+00
-1.0691047e+00
-8.7599669e-01
-6.0003877e-01
-3.6427231e-01
-3.1633802e-01
-4.3647154e-01
-5.4979557e-01
-5.4192808e-01
-4.1660499e-01
-2.3445447e-01
-7.7748653e-02
-2.0612133e-02
-8.4947182e-02
-2.1286916e-01
-3.0948690e-01
-3.1456339e-01
-2.1694003e-01
-2.4298623e-02
2.4510354e-01
5.5719164e-01
8.3391496e-01
9.4204832e-01
7.8729464e-01
4.3451791e-01
8.5674806e-02
-8.4836230e-02
-3.5182132e-02
1.5418497e-01
3.2387512e-01
3.5753659e-01
3.0631016e-01
3.1452931e-01
4.6550728e-01
7.4567902e-01
1.0586408e+00
1.2341566e+00
1.1240513e+00
7.4913052e-01
2.8810243e-01
-9.6483263e-02
-3.5208872e-01
-4.8684261e-01
-5.2967340e-01
-5.3247069e-01
-5.6956719e-01
-7.1318752e-01
-9.8010737e-01
-1.3003304e+00
-1.5563902e+00
-1.6602017e+00
-1.5879125e+00
-1.3618478e+00
-1.0245755e+00
-6.1365354e-01
-1.4302059e-01
3.8792410e-01
9.7863426e-01
1.5988555e+00
2.1296990e+00
2.3677562e+00
2.1783804e+00
1.6415558e+00
9.8808382e-01
4.1034999e-01
-2.1717517e-02
-3.0771655e-01
-4.6526568e-01
-5.1854487e-01
-4.9974429e-01
-4.6167465e-01
-4.7901156e-01
-5.9996332e-01
-7.8618099e-01
-9.3676943e-01
-9.6979114e-01
-8.5540446e-01
-6.0818337e-01
-2.8463356e-01
2.8319799e-02
2.6475734e-01
4.3070621e-01
5.6522603e-01
6.6551785e-01
6.9643600e-01
6.4524804e-01
5.2672875e-01
3.6642343e-01
1.9772351e-01
4.9146831e-02
-7.9709769e-02
-2.2372223e-01
-4.1483005e-01
-6.2960521e-01
-8.0009851e-01
-8.8275224e-01
-8.8518183e-01
-8.4360894e-01
-7.9466003e-01
-7.5227287e-01
-6.9795702e-01
-5.8979079e-01
-3.9175072e-01
-9.2584774e-02
3.0126404e-01
7.5198874e-01
1.1343587e+00
1.2586719e+00
1.1397449e+00
1.0225512e+00
1.0071746e+00
1.0024350e+00
9.1269189e-01
7.0791868e-01
4.2859712e-01
1.3736732e-01
-1.1443538e-01
-2.8436903e-01
-3.3503231e-01
-2.5611956e-01
-8.8999524e-02
5.8441791e-02
4.8184172e-02
-1.7695446e-01
-5.2513352e-01
-8.3141999e-01
-9.8495342e-01
-9.6836636e-01
-8.1962423e-01
-5.8313284e-01
-2.8062349e-01
7.9136921e-02
4.6519886e-01
7.9307715e-01
9.4808673e-01
8.7983489e-01
6.6127970e-01
4.2117079e-01
2.2559310e-01
5.5964669e-02
-1.2222759e-01
-3.0116313e-01
-4.3464509e-01
-4.8419881e-01
-4.4026442e-01
-3.1557351e-01
-1.4212344e-01
3.7912792e-02
1.9661986e-01
3.1351850e-01
3.4225937e-01
2.3418042e-01
7.4297156e-03
-2.3581406e-01
-3.8599237e-01
-4.0161955e-01
-3.0157323e-01
-1.2919880e-01
5.7647153e-02
1.8590329e-01
2.0355164e-01
1.2435442e-01
6.5542872e-03
-9.8163431e-02
-1.5907532e-01
-1.5718633e-01
-8.5642370e-02
4.7561550e-02
2.2716195e-01
4.2061006e-01
5.5081695e-01
5.2189496e-01
3.1697811e-01
3.7085307e-02
-1.9430136e-01
-3.2583755e-01
-3.7387990e-01
-3.7200814e-01
-3.4404201e-01
-3.0617851e-01
-2.6805101e-01
-2.2778597e-01
-1.7565692e-01
-1.0129308e-01
9.4546389e-03
1.6893917e-01
3.5802581e-01
5.0803258e-01
5.4835756e-01
4.7000495e-01
3.1057337e-01
1.1170783e-01
-8.0814696e-02
-2.1486895e-01
-2.5671042e-01
-2.0901449e-01
-1.0025156e-01
2.8845464e-02
1.2010471e-01
1.1313563e-01
7.2172320e-03
-1.2109518e-01
-1.9441288e-01
-1.9400219e-01
-1.4055011e-01
-5.8784507e-02
2.7810907e-02
9.3818225e-02
1.2877165e-01
1.4511028e-01
1.5180541e-01
1.4000869e-01
1.0670954e-01
6.2302412e-02
1.0922777e-03
-1.0321886e-01
-2.5090615e-01
-3.9467123e-01
-4.8873303e-01
-5.3432585e-01
-5.6240281e-01
-5.9094777e-01
-6.1684961e-01
-6.3520014e-01
-6.3982458e-01
-6.1071123e-01
-5.2300759e-01
-3.7094027e-01
-1.7259182e-01
4.8778132e-02
2.7996435e-01
5.2644135e-01
8.1306535e-01
1.1544618e+00
1.5051507e+00
1.7498599e+00
1.8253920e+00
1.7508733e+00
1.4947072e+00
1.0255586e+00
4.2435178e-01
-1.5972137e-01
-6.0820365e-01
-8.8616419e-01
-1.0176855e+00
-1.0453724e+00
-1.0117360e+00
-9.4982788e-01
-8.7105090e-01
-7.6548578e-01
-6.2320988e-01
-4.4578726e-01
-2.3751714e-01
-4.2695020e-03
2.2985807e-01
4.1114540e-01
4.9376070e-01
4.8107287e-01
3.9449542e-01
2.4113337e-01
4.1413484e-02
-1.4814874e-01
-2.6793979e-01
-2.9892050e-01
-2.6054591e-01
-1.8341576e-01
-9.7430852e-02
-3.0213665e-02
7.8191763e-03
2.7867213e-02
3.4190182e-02
1.3060784e-02
-3.4575975e-02
-7.7286234e-02
-8.7145096e-02
-7.0293256e-02
-4.8530144e-02
-3.1318263e-02
-2.8236808e-02
-6.3264352e-02
-1.4388849e-01
-2.3537028e-01
-2.9308507e-01
-2.9849985e-01
-2.4990407e-01
-1.4456641e-01
1.2722415e-02
1.8579363e-01
3.1914953e-01
3.7765391e-01
3.5125383e-01
2.5088669e-01
1.2014940e-01
2.4780289e-02
1.6578101e-02
1.1111919e-01
2.9493234e-01
5.2270351e-01
6.9388540e-01
6.8681874e-01
4.7676820e-01
1.7720027e-01
-7.8556395e-02
-2.3951683e-01
-3.1665122e-01
-3.2901815e-01
-2.9559992e-01
-2.5278004e-01
-2.3702445e-01
-2.4973033e-01
-2.6378303e-01
-2.5196795e-01
-1.9704326e-01
-9.6591074e-02
2.5170837e-02
1.2911445e-01
1.9779849e-01
2.4012211e-01
2.5555668e-01
2.1920381e-01
1.2509528e-01
2.2801590e-02
-2.3936127e-02
2.0859808e-03
6.5444130e-02
1.1144210e-01
9.6694179e-02
6.6161689e-03
-1.3186429e-01
-2.6246260e-01
-3.4280285e-01
-3.6639665e-01
-3.4335478e-01
-2.8662717e-01
-2.2333977e-01
-1.9333629e-01
-2.0895057e-01
-2.3608844e-01
-2.4176718e-01
-2.2969584e-01
-2.1103627e-01
-1.6899129e-01
-7.0143440e-02
1.0568375e-01
3.5652275e-01
6.4922690e-01
8.8336058e-01
8.9919099e-01
6.1251014e-01
1.3125946e-01
-3.4209281e-01
-6.8195728e-01
-8.7024433e-01
-9.3244197e-01
-8.7959995e-01
-7.0191868e-01
-4.0103439e-01
-2.7079179e-03
4.5084573e-01
9.0616913e-01
1.3096744e+00
1.6212080e+00
1.8114504e+00
1.8653146e+00
1.7487648e+00
1.3978744e+00
8.3225576e-01
1.8359351e-01
-4.1682456e-01
-8.9352802e-01
-1.2168795e+00
-1.4040213e+00
-1.5065405e+00
-1.5715379e+00
-1.6155579e+00
-1.6304676e+00
-1.6014992e+00
-1.5082333e+00
-1.3312768e+00
-1.0721486e+00
-7.5139284e-01
-3.8549251e-01
2.3295280e-02
4.5778714e-01
8.6711183e-01
1.1966465e+00
1.4005879e+00
1.4309194e+00
1.2608448e+00
9.3415175e-01
5.6353608e-01
2.6191918e-01
8.9984077e-02
5.8568208e-02
1.5305563e-01
3.4662887e-01
5.9209820e-01
7.8726907e-01
7.9056630e-01
5.4145222e-01
1.4413899e-01
-2.1514007e-01
-4.1413129e-01
-4.4247813e-01
-3.5832417e-01
-2.1965599e-01
-4.5024214e-02
1.6996691e-01
4.2424199e-01
6.8253802e-01
8.5402525e-01
8.3626361e-01
6.0996479e-01
2.6592432e-01
-8.7446195e-02
-3.9969124e-01
-6.5865322e-01
-8.5364741e-01
-9.6946909e-01
-1.0076687e+00
-1.0034240e+00
-1.0171838e+00
-1.0948623e+00
-1.2224929e+00
-1.3336774e+00
-1.3613821e+00
-1.2723165e+00
-1.0785431e+00
-8.2440815e-01
-5.3302856e-01
-1.8118912e-01
2.6164004e-01
8.0030609e-01
1.4049583e+00
1.9768950e+00
2.3344855e+00
2.3173903e+00
1.9314493e+00
1.3454806e+00
7.5697798e-01
2.8439837e-01
-3.5593353e-02
-1.9527252e-01
-2.0088954e-01
-8.1658850e-02
9.8974746e-02
2.3051320e-01
1.9901096e-01
-1.0632106e-02
-2.9429750e-01
-5.4306014e-01
-7.1938260e-01
-8.2397600e-01
-8.5159322e-01
-7.8862191e-01
-6.3632606e-01
-4.2181842e-01
-1.9359394e-01
-1.6062463e-02
5.4657920e-02
2.1919930e-02
-3.5484211e-02
-2.7634029e-02
8.2803291e-02
2.8343435e-01
5.2702763e-01
7.1804920e-01
7.3262278e-01
5.2296025e-01
1.7630331e-01
-1.8259102e-01
-4.9532140e-01
-7.5531851e-01
-9.5096375e-01
-1.0545683e+00
-1.0480965e+00
-9.3407294e-01
-7.3168172e-01
-4.8155859e-01
-2.4342880e-01
-5.3558395e-02
1.2681300e-01
3.8357197e-01
7.6896213e-01
1.2709190e+00
1.8019309e+00
2.1769413e+00
2.2079238e+00
1.8914722e+00
1.4140672e+00
9.5344730e-01
5.6620083e-01
2.0268974e-01
-1.9861622e-01
-5.9497359e-01
-8.9447093e-01
-1.0595475e+00
-1.1094735e+00
-1.0949823e+00
-1.0730277e+00
-1.0682540e+00
-1.0547490e+00
-9.9610134e-01
-8.8527216e-01
-7.4106782e-01
-5.8365623e-01
-4.1881210e-01
-2.4388852e-01
-5.6783488e-02
1.3640999e-01
3.0451251e-01
3.9237898e-01
3.7469727e-01
2.9736956e-01
2.3076583e-01
2.0878473e-01
2.2344995e-01
2.4277326e-01
2.2056702e-01
1.1734995e-01
-5.5992352e-02
-2.3192395e-01
-3.4240547e-01
-3.6439721e-01
-3.1051840e-01
-1.9957808e-01
-4.7942957e-02
1.1371479e-01
2.3455604e-01
2.7569806e-01
2.4731805e-01
2.0146270e-01
1.9261439e-01
2.4871019e-01
3.4605888e-01
3.9562645e-01
3.1681578e-01
1.3296175e-01
-7.2222574e-02
-2.4953396e-01
-3.8625513e-01
-4.6386790e-01
-4.5500821e-01
-3.4975492e-01
-1.6247333e-01
8.1710732e-02
3.5433262e-01
6.1346489e-01
7.9451129e-01
8.2754950e-01
6.8067761e-01
3.9193872e-01
5.7075438e-02
-2.1865290e-01
-3.6806990e-01
-3.7903417e-01
-2.7639366e-01
-1.0719434e-01
4.0440763e-02
5.8656163e-02
-6.3773079e-02
-2.1526165e-01
-3.0717825e-01
-3.4546764e-01
-3.7390981e-01
-4.0968826e-01
-4.2278562e-01
-3.7137114e-01
-2.3547766e-01
-2.1170327e-02
2.4500778e-01
5.1523020e-01
7.2143153e-01
7.9090242e-01
6.8067601e-01
4.2678236e-01
1.4082919e-01
-7.1521572e-02
-1.7842191e-01
-2.1692800e-01
-2.3317203e-01
-2.3829441e-01
-2.2880727e-01
-2.1747622e-01
-2.1858163e-01
-2.2130956e-01
-2.0292798e-01
-1.5216579e-01
-6.8554211e-02
3.7349934e-02
1.3573080e-01
1.9035586e-01
1.9975934e-01
2.0951422e-01
2.6244708e-01
3.4104607e-01
3.7016333e-01
2.9230828e-01
1.2851507e-01
-4.4675117e-02
-1.5454602e-01
-1.6905778e-01
-1.0264068e-01
-2.1761520e-02
3.0531463e-04
-2.6471292e-02
-2.8039198e-02
3.9552956e-02
1.6508931e-01
3.0756112e-01
4.0026325e-01
3.7055349e-01
2.0603656e-01
-1.9494240e-02
-2.1911091e-01
-3.5410245e-01
-4.2153228e-01
-4.3094657e-01
-3.9825675e-01
-3.6449118e-01
-4.3232035e-01
-6.6898385e-01
-9.6537777e-01
-1.1536219e+00
-1.1666443e+00
-1.0329371e+00
-8.2332451e-01
-5.9632283e-01
-3.6019464e-01
-7.5665918e-02
3.0117700e-01
7.7370536e-01
1.2722577e+00
1.6433679e+00
1.7279808e+00
1.4875925e+00
1.0243435e+00
4.9611281e-01
2.5078564e-02
-3.3892132e-01
-5.9597968e-01
-7.6113582e-01
-8.4506191e-01
-8.5391135e-01
-7.9337752e-01
-6.6855979e-01
-4.8832488e-01
-2.6693877e-01
-1.4635566e-02
2.5104225e-01
4.6749436e-01
5.4528872e-01
4.6681940e-01
3.2160647e-01
2.1926139e-01
2.2334115e-01
3.5653051e-01
6.1503353e-01
9.7086785e-01
1.3466751e+00
1.5981405e+00
1.5902603e+00
1.3049284e+00
8.4089994e-01
3.3111385e-01
-1.1745248e-01
-4.4408689e-01
-6.3820840e-01
-7.2372093e-01
-7.3730191e-01
-7.1728254e-01
-6.9292347e-01
-6.7046886e-01
-6.3806242e-01
-5.9012690e-01
-5.3476879e-01
-4.7621890e-01
-4.1094566e-01
-3.4901352e-01
-3.2326425e-01
-3.5650401e-01
-4.2398498e-01
-4.7513631e-01
-4.8167426e-01
-4.4634723e-01
-3.8514385e-01
-3.2038532e-01
-2.8053036e-01
-2.7900164e-01
-2.9143366e-01
-2.7416118e-01
-1.9896629e-01
-6.0389194e-02
1.3305828e-01
3.5337711e-01
5.2286294e-01
5.3896514e-01
3.9387449e-01
2.0454695e-01
9.4929414e-02
1.2339664e-01
2.9396688e-01
5.7031063e-01
8.5229587e-01
9.6715021e-01
7.8964548e-01
3.9779230e-01
9.8707323e-03
-2.2791081e-01
-3.0088959e-01
-2.6657951e-01
-2.0966752e-01
-2.0884838e-01
-2.9500138e-01
-4.1578832e-01
-4.7596603e-01
-4.1503048e-01
-2.2356383e-01
8.4796028e-02
4.8076427e-01
9.0075823e-01
1.1887078e+00
1.1407601e+00
7.2013388e-01
1.2658278e-01
-3.9124796e-01
-7.0614980e-01
-8.1646139e-01
-7.7514163e-01
-6.4920541e-01
-5.0293578e-01
-3.5984532e-01
-1.8924602e-01
5.0700872e-02
3.5981320e-01
6.8303636e-01
9.1325208e-01
9.3169429e-01
7.3175504e-01
4.4651601e-01
2.0554444e-01
5.4226095e-02
-2.3657654e-03
2.9986257e-02
1.3026833e-01
2.6845293e-01
4.1694557e-01
5.4216830e-01
5.2724735e-01
2.2553280e-01
-2.9789860e-01
-8.1085158e-01
-1.1614653e+00
-1.3225966e+00
-1.3272230e+00
-1.2347985e+00
-1.1001850e+00
-9.4179444e-01
-7.6031672e-01
-5.7447611e-01
-4.2015543e-01
-3.3841554e-01
-3.5155988e-01
-4.1976532e-01
-4.6358694e-01
-4.2851825e-01
-2.9785801e-01
-7.6568220e-02
2.2190877e-01
5.8868055e-01
1.0240834e+00
1.5137588e+00
1.9768154e+00
2.2286634e+00
2.0745428e+00
1.4964674e+00
6.9884927e-01
-4.8194936e-02
-5.8032332e-01
-8.6541461e-01
-9.4912462e-01
-9.0089142e-01
-7.6647709e-01
-5.5865522e-01
-2.7890875e-01
5.4481262e-02
3.7254556e-01
5.5126913e-01
4.9002562e-01
2.1945064e-01
-1.1495457e-01
-3.7619189e-01
-5.0502177e-01
-5.0199179e-01
-3.8281331e-01
-1.7384591e-01
5.2854046e-02
1.6575590e-01
4.8051641e-02
-2.7809855e-01
-6.5658998e-01
-9.3791916e-01
-1.0624702e+00
-1.0497767e+00
-9.5966170e-01
-8.3368151e-01
-6.5537388e-01
-3.7229366e-01
5.0087313e-02
5.9819723e-01
1.1944263e+00
1.6706616e+00
1.8136531e+00
1.5412842e+00
1.0036694e+00
4.4968710e-01
4.1915200e-02
-1.7511528e-01
-2.0704101e-01
-7.9825841e-02
1.4883727e-01
3.5285054e-01
3.5858437e-01
8.4653706e-02
-3.5873608e-01
-7.4979797e-01
-9.2778125e-01
-8.6699436e-01
-6.4244322e-01
-3.6615280e-01
-1.0323093e-01
1.6247147e-01
4.8250014e-01
8.8341213e-01
1.3074761e+00
1.5871741e+00
1.5520130e+00
1.1984846e+00
6.9667113e-01
2.3846153e-01
-7.7102445e-02
-2.3614816e-01
-2.5044013e-01
-1.4234611e-01
3.6649619e-02
1.8458724e-01
1.7471175e-01
-4.8223078e-02
-4.0692310e-01
-7.5077748e-01
-9.6900423e-01
-1.0374196e+00
-9.8291038e-01
-8.4110618e-01
-6.4624746e-01
-4.4774697e-01
-2.9297926e-01
-1.8270099e-01
-1.0628946e-01
-9.3976172e-02
-1.7886117e-01
-3.3843351e-01
-5.1769870e-01
-6.7544208e-01
-7.8456246e-01
-8.2208352e-01
-7.7320725e-01
-6.3973380e-01
-4.3595939e-01
-1.7446920e-01
1.3769166e-01
4.8556633e-01
8.4016111e-01
1.1357524e+00
1.2534872e+00
1.0876196e+00
7.2405821e-01
3.9459022e-01
1.6694832e-01
-3.9404796e-02
-2.4157838e-01
-3.6618894e-01
-3.3329823e-01
-1.2307186e-01
2.3966759e-01
7.0847099e-01
1.1857139e+00
1.4970023e+00
1.4731001e+00
1.1044215e+00
5.6296483e-01
5.3348000e-02
-3.1344764e-01
-5.1436470e-01
-5.5246963e-01
-4.4454629e-01
-2.3809572e-01
-3.2080984e-02
3.9077369e-02
-9.7255291e-02
-3.7707757e-01
-6.5710559e-01
-8.3837065e-01
-9.2107564e-01
-9.6857347e-01
-1.0172481e+00
-1.0216453e+00
-9.0723707e-01
-6.4482374e-01
-2.6122262e-01
1.7324336e-01
5.2704389e-01
6.3858501e-01
4.6247861e-01
1.3862578e-01
-1.3609035e-01
-2.5285149e-01
-2.0051517e-01
-3.6390157e-03
3.0518721e-01
6.7642534e-01
9.8344374e-01
1.0279945e+00
7.1944895e-01
2.0282146e-01
-2.6376984e-01
-5.1780827e-01
-5.3954526e-01
-3.7806221e-01
-1.0091850e-01
2.0745188e-01
4.6574021e-01
6.7000729e-01
8.9705850e-01
1.1903323e+00
1.4803285e+00
1.5949590e+00
1.3799444e+00
8.7080249e-01
2.7028981e-01
-2.5637810e-01
-6.6469347e-01
-9.5633535e-01
-1.1386674e+00
-1.2319335e+00
-1.2715801e+00
-1.3015553e+00
-1.3544670e+00
-1.4225531e+00
-1.4526935e+00
-1.3885038e+00
-1.2115073e+00
-9.4075983e-01
-6.0162832e-01
-1.9653402e-01
2.8451600e-01
8.3621911e-01
1.4210602e+00
1.9262538e+00
2.1508085e+00
1.9447687e+00
1.3831715e+00
7.0909770e-01
1.2446014e-01
-2.9443704e-01
-5.5543636e-01
-6.9579487e-01
-7.5030990e-01
-7.4120392e-01
-6.8083586e-01
-5.8217852e-01
-4.6283683e-01
-3.3678974e-01
-2.1991967e-01
-1.4925638e-01
-1.6489909e-01
-2.5888084e-01
-3.6633316e-01
-4.1993245e-01
-3.8903225e-01
-2.7281113e-01
-8.4395430e-02
1.5691727e-01
4.3139432e-01
7.2636166e-01
1.0131786e+00
1.2056491e+00
1.1892407e+00
9.4051707e-01
5.9134596e-01
3.1858125e-01
2.0593820e-01
2.3089863e-01
3.1282683e-01
3.5337142e-01
2.7348979e-01
6.0771016e-02
-2.0485873e-01
-4.0739121e-01
-4.7654713e-01
-4.0170576e-01
-2.1542096e-01
2.2028550e-03
1.3744593e-01
1.1091982e-01
-7.8648260e-02
-3.5749430e-01
-6.0408427e-01
-7.2743561e-01
-7.0812838e-01
-5.7135512e-01
-3.7159718e-01
-1.7514154e-01
-2.7721546e-02
4.7556428e-02
3.7574302e-02
-5.8213815e-02
-2.0959951e-01
-3.5066661e-01
-4.2065902e-01
-3.9978314e-01
-3.1878065e-01
-2.6485225e-01
-3.3355702e-01
-5.2182481e-01
-7.1352636e-01
-7.9693512e-01
-7.4599795e-01
-6.0479466e-01
-4.2239407e-01
-1.9347132e-01
1.2792887e-01
5.7269764e-01
1.1253973e+00
1.7080238e+00
2.1754420e+00
2.3804513e+00
2.2676430e+00
1.8721120e+00
1.2787224e+00
6.1695111e-01
3.3451105e-02
-3.6480858e-01
-5.4293320e-01
-5.2949378e-01
-4.0829300e-01
-3.1820761e-01
-3.9372318e-01
-6.5148904e-01
-9.6528447e-01
-1.1842394e+00
-1.2435719e+00
-1.1642903e+00
-9.8973917e-01
-7.3161075e-01
-3.7987293e-01
6.2757618e-02
5.5004312e-01
9.2996091e-01
9.8953114e-01
6.9757229e-01
2.7184103e-01
-8.0616319e-02
-3.0826952e-01
-4.3841776e-01
-4.9993742e-01
-4.9607720e-01
-4.1389918e-01
-2.4303949e-01
1.8369469e-02
3.6061650e-01
7.5331713e-01
1.1169962e+00
1.2982817e+00
1.1545314e+00
7.1124017e-01
1.6720654e-01
-2.8000190e-01
-5.5260071e-01
-6.7217672e-01
-6.9854881e-01
-6.7175335e-01
-5.9151750e-01
-4.4477556e-01
-2.3151155e-01
2.3776852e-02
2.5311064e-01
3.5735074e-01
2.7930678e-01
6.6719207e-02
-1.6656836e-01
-3.2865325e-01
-3.8209935e-01
-3.2984182e-01
-1.9723529e-01
-4.3717346e-02
3.6507744e-02
-3.1115147e-02
-2.4845587e-01
-5.3583022e-01
-7.7531532e-01
-8.8238505e-01
-8.4095195e-01
-6.9178243e-01
-4.8852068e-01
-2.4081068e-01
8.6540152e-02
5.2508678e-01
1.0790412e+00
1.7177399e+00
2.3155944e+00
2.6276873e+00
2.4565881e+00
1.8497610e+00
1.0441407e+00
2.5541627e-01
-4.1481840e-01
-9.3561810e-01
-1.2926417e+00
-1.4857960e+00
-1.5435660e+00
-1.5146813e+00
-1.4486362e+00
-1.3813191e+00
-1.3173664e+00
-1.2221877e+00
-1.0534421e+00
-7.8987216e-01
-4.2671746e-01
2.4469535e-02
5.0611422e-01
8.9481169e-01
1.1700234e+00
1.4741804e+00
1.8616088e+00
2.2379023e+00
2.4169068e+00
2.2065912e+00
1.6418452e+00
9.7666558e-01
4.1985753e-01
2.6463463e-02
-2.2484799e-01
-3.7380004e-01
-4.6391744e-01
-5.3168814e-01
-5.9902096e-01
-6.7809368e-01
-7.7947742e-01
-9.0224116e-01
-1.0207435e+00
-1.0977888e+00
-1.1052773e+00
-1.0376475e+00
-9.2047446e-01
-8.1954618e-01
-8.0389996e-01
-8.6884693e-01
-9.5020363e-01
-9.9937369e-01
-1.0015883e+00
-9.5962746e-01
-8.9155032e-01
-8.1627111e-01
-7.3055751e-01
-6.0670928e-01
-4.1490314e-01
-1.4398913e-01
2.0514684e-01
6.3278393e-01
1.1371835e+00
1.6607902e+00
2.0324308e+00
2.0502080e+00
1.6794643e+00
1.1241174e+00
6.5267364e-01
4.0431748e-01
3.8247599e-01
4.9005115e-01
5.3591181e-01
3.5702676e-01
-8.4727328e-03
-3.5575067e-01
-5.2509612e-01
-4.9690335e-01
-3.4334291e-01
-1.8046697e-01
-1.1410426e-01
-1.6281970e-01
-2.5063031e-01
-2.8072270e-01
-1.9588747e-01
1.2049633e-02
3.2373770e-01
6.9295932e-01
1.0268499e+00
1.1959056e+00
1.0941863e+00
7.3119512e-01
2.5425155e-01
-1.5824111e-01
-4.1355303e-01
-5.1895552e-01
-5.3022921e-01
-5.0150325e-01
-4.6609376e-01
-4.4116197e-01
-4.2509320e-01
-3.9845579e-01
-3.4950796e-01
-2.9453072e-01
-2.5925946e-01
-2.5070235e-01
-2.6599145e-01
-3.0882680e-01
-3.7414709e-01
-4.3228116e-01
-4.4702675e-01
-4.0913052e-01
-3.4737869e-01
-3.1583291e-01
-3.6795669e-01
-5.2016345e-01
-7.2817083e-01
-9.0788502e-01
-9.8734255e-01
-9.4010995e-01
-7.7405688e-01
-4.9603681e-01
-9.9235135e-02
4.1622256e-01
1.0320439e+00
1.7072727e+00
2.3309031e+00
2.6970494e+00
2.6175822e+00
2.1004180e+00
1.3658778e+00
6.6765486e-01
1.4073366e-01
-1.9076328e-01
-3.4292648e-01
-3.4705386e-01
-2.4486285e-01
-8.5840606e-02
6.3407851e-02
1.2785187e-01
7.7775435e-02
-4.2255964e-02
-1.7631608e-01
-3.1230792e-01
-4.5492355e-01
-5.8020981e-01
-6.4412822e-01
-6.2503104e-01
-5.4085717e-01
-4.3239309e-01
-3.4201133e-01
-3.0854512e-01
-3.3399883e-01
-3.6975893e-01
-3.8241297e-01
-3.9176847e-01
-4.3963908e-01
-5.3137528e-01
-6.1585434e-01
-6.4033426e-01
-5.9281927e-01
-4.9257078e-01
-3.6948195e-01
-2.5089702e-01
-1.4593761e-01
-4.0066096e-02
8.5323451e-02
2.4231061e-01
4.3943539e-01
6.6722580e-01
8.6845976e-01
9.4850995e-01
8.6724565e-01
6.9152687e-01
5.1167841e-01
3.5697782e-01
2.1550114e-01
9.0966439e-02
7.0406787e-03
-2.7536908e-02
-3.1364803e-02
-3.5923300e-02
-7.0845535e-02
-1.5051464e-01
-2.5598542e-01
-3.4176400e-01
-3.7545095e-01
-3.6080858e-01
-3.2012622e-01
-2.6877083e-01
-2.1449649e-01
-1.6145273e-01
-1.0137137e-01
-2.1489556e-02
7.0352597e-02
1.4031762e-01
1.6613008e-01
1.6479974e-01
1.5367125e-01
1.1617465e-01
4.1755120e-02
-3.4667721e-02
-6.8535970e-02
-4.7916902e-02
1.5828334e-02
1.1090359e-01
2.2825444e-01
3.5222361e-01
4.6365481e-01
5.4249458e-01
5.5024968e-01
4.3397972e-01
1.7939581e-01
-1.5721095e-01
-4.9405305e-01
-7.8355544e-01
-1.0166675e+00
-1.1867417e+00
-1.2719490e+00
-1.2547153e+00
-1.1385470e+00
-9.3438493e-01
-6.4373791e-01
-2.8294383e-01
8.2229991e-02
3.4790048e-01
4.3453744e-01
3.5536771e-01
2.0603505e-01
9.1399237e-02
7.1134817e-02
1.5365924e-01
3.2327921e-01
5.6834327e-01
8.9307103e-01
1.3011889e+00
1.7627980e+00
2.1789771e+00
2.4041899e+00
2.3349061e+00
1.9674031e+00
1.3937504e+00
7.4851456e-01
1.4477602e-01
-3.4578703e-01
-6.8598158e-01
-8.8089425e-01
-1.0075032e+00
-1.1764912e+00
-1.4074739e+00
-1.6111346e+00
-1.7007471e+00
-1.6575220e+00
-1.5172996e+00
-1.3398209e+00
-1.1721077e+00
-1.0243430e+00
-8.7317408e-01
-6.8848277e-01
-4.5785721e-01
-1.8227922e-01
1.3728502e-01
4.9963076e-01
8.8068551e-01
1.2089323e+00
1.3577481e+00
1.2069858e+00
7.6689228e-01
2.0226711e-01
-2.9313804e-01
-6.1426469e-01
-7.6142346e-01
-7.8886818e-01
-7.2761481e-01
-5.5881332e-01
-2.5467466e-01
1.8122003e-01
7.1134386e-01
1.2877372e+00
1.8778355e+00
2.3670047e+00
2.5284275e+00
2.2568986e+00
1.6533725e+00
8.9848558e-01
1.6133791e-01
-4.4550527e-01
-8.7646739e-01
-1.1484782e+00
-1.3185274e+00
-1.4385625e+00
-1.5255050e+00
-1.5656346e+00
-1.5301591e+00
-1.3985551e+00
-1.1831002e+00
-9.3396579e-01
-6.9823146e-01
-4.6249329e-01
-1.7361067e-01
1.9665404e-01
6.2906950e-01
1.0493702e+00
1.3164918e+00
1.2939031e+00
9.8947295e-01
5.5678598e-01
1.5763540e-01
-1.2644915e-01
-2.8501758e-01
-3.3665429e-01
-3.0818909e-01
-2.2813426e-01
-1.3201034e-01
-7.4040548e-02
-9.8941339e-02
-1.8586185e-01
-2.5580142e-01
-2.4765362e-01
-1.7841390e-01
-1.3025556e-01
-1.5836656e-01
-2.2919905e-01
-2.6521494e-01
-2.1271718e-01
-6.6644041e-02
1.3010504e-01
2.9972283e-01
3.8587329e-01
3.9882873e-01
3.5937941e-01
2.4769370e-01
5.3262730e-02
-1.6507332e-01
-3.0999313e-01
-3.2545962e-01
-2.1673654e-01
-1.8027981e-02
2.3154501e-01
4.7968234e-01
6.5191404e-01
6.8090368e-01
5.4807186e-01
3.1065199e-01
8.1150637e-02
-4.3315200e-02
-2.5251615e-02
1.2026625e-01
3.5039545e-01
6.0053343e-01
7.6426282e-01
7.2288475e-01
4.5436409e-01
8.1802057e-02
-2.3729842e-01
-4.3464798e-01
-5.3158067e-01
-5.7388819e-01
-5.8806217e-01
-5.7792045e-01
-5.3871050e-01
-4.8050968e-01
-4.5057387e-01
-5.0934408e-01
-6.5903369e-01
-8.2260436e-01
-9.1357563e-01
-8.9952344e-01
-7.9581033e-01
-6.1876880e-01
-3.5882337e-01
-4.9451840e-03
4.2125450e-01
8.5126577e-01
1.1790264e+00
1.3180070e+00
1.2756412e+00
1.1412009e+00
9.7644365e-01
7.6701453e-01
4.9326657e-01
1.9334652e-01
-6.3248254e-02
-2.3185861e-01
-3.0218067e-01
-2.7679193e-01
-1.6064906e-01
2.5946070e-02
2.2337664e-01
3.2621480e-01
2.2996953e-01
-8.3968610e-02
-5.1502471e-01
-9.1104005e-01
-1.1635964e+00
-1.2445342e+00
-1.1935889e+00
-1.0907129e+00
-1.0014592e+00
-9.2056550e-01
-7.8730459e-01
-5.4840923e-01
-1.9301763e-01
2.4387008e-01
6.9716412e-01
1.1086909e+00
1.4569283e+00
1.7602036e+00
2.0595573e+00
2.3538587e+00
2.5377339e+00
2.4527805e+00
2.0049026e+00
1.2733082e+00
4.8742107e-01
-1.6113056e-01
-6.0702387e-01
-8.6504437e-01
-9.9153979e-01
-1.0660493e+00
-1.1584154e+00
-1.2761073e+00
-1.3610208e+00
-1.3551900e+00
-1.2510788e+00
-1.0796271e+00
-8.9224841e-01
-7.4412097e-01
-6.6755109e-01
-6.5644688e-01
-6.7803179e-01
-6.9948981e-01
-7.0353613e-01
-6.8648637e-01
-6.4876264e-01
-5.9447927e-01
-5.2818319e-01
-4.4689960e-01
-3.4477858e-01
-2.3032280e-01
-1.2233800e-01
-3.6704097e-02
9.3213152e-03
9.3636427e-03
-1.5303486e-03
4.9736547e-02
2.2780221e-01
5.5517409e-01
1.0102844e+00
1.5387393e+00
2.0515852e+00
2.4016459e+00
2.4134236e+00
2.0252923e+00
1.3879087e+00
7.5004891e-01
2.7382048e-01
-4.0450013e-03
-1.0525695e-01
-6.7204402e-02
6.6362856e-02
2.1680462e-01
2.4611671e-01
3.2672638e-02
-4.0554956e-01
-8.9973955e-01
-1.2708112e+00
-1.4516767e+00
-1.4790934e+00
-1.4189145e+00
-1.2986311e+00
-1.1080680e+00
-8.4878644e-01
-5.6701091e-01
-3.4047754e-01
-2.1503887e-01
-1.4982468e-01
-6.0645907e-02
7.1880981e-02
1.8622373e-01
2.2946137e-01
2.2760182e-01
2.5660555e-01
3.7048553e-01
5.8230672e-01
8.8509575e-01
1.2698349e+00
1.6945822e+00
2.0064940e+00
1.9708665e+00
1.4760545e+00
6.8868229e-01
-8.5401613e-02
-6.5894686e-01
-1.0072621e+00
-1.1994275e+00
-1.3310680e+00
-1.4338448e+00
-1.4673329e+00
-1.3856881e+00
-1.1750887e+00
-8.5539667e-01
-4.8900035e-01
-1.8260006e-01
-4.1158960e-02
-7.3593292e-02
-1.7526505e-01
-2.2525039e-01
-1.5980142e-01
3.2790161e-02
3.4395324e-01
7.5317369e-01
1.2129277e+00
1.5863348e+00
1.6519260e+00
1.2896329e+00
6.3418707e-01
-3.0824917e-02
-5.0975176e-01
-7.6807244e-01
-8.5643647e-01
-8.2754098e-01
-6.8681341e-01
-4.1095403e-01
8.1287042e-03
5.4297562e-01
1.1054959e+00
1.5150947e+00
1.5697585e+00
1.2344631e+00
6.9879775e-01
2.0219318e-01
-1.2681446e-01
-2.6809225e-01
-2.4913845e-01
-1.2095400e-01
-4.4979180e-02
-2.4670261e-01
-7.2075985e-01
-1.2352834e+00
-1.6027182e+00
-1.7614804e+00
-1.7202959e+00
-1.5267672e+00
-1.2486856e+00
-9.2434337e-01
-5.3759722e-01
-5.8855516e-02
5.1176594e-01
1.1297592e+00
1.6783676e+00
1.9637163e+00
1.8383000e+00
1.3621712e+00
7.6029303e-01
2.3553016e-01
-1.3200542e-01
-3.5102606e-01
-4.4377047e-01
-4.2177000e-01
-2.9747905e-01
-9.8227242e-02
1.1328866e-01
2.3950561e-01
2.0077983e-01
2.7108285e-03
-2.6213051e-01
-4.8403273e-01
-5.9675846e-01
-5.8608466e-01
-4.7702771e-01
-3.3398878e-01
-2.3372318e-01
-1.9510740e-01
-1.6450123e-01
-7.6406939e-02
1.0098612e-01
3.5861573e-01
6.3924475e-01
8.4389103e-01
8.9237815e-01
7.8647986e-01
5.8789323e-01
3.6005268e-01
1.5207208e-01
1.5355867e-03
-7.0626773e-02
-7.1826712e-02
-3.5477341e-02
-2.9116546e-03
-1.0142273e-02
-6.6590391e-02
-1.3560769e-01
-1.6315980e-01
-1.3503258e-01
-9.3432155e-02
-8.8534783e-02
-1.2353092e-01
-1.6864819e-01
-2.0867886e-01
-2.4469984e-01
-2.6858289e-01
-2.6871760e-01
-2.5446488e-01
-2.5039865e-01
-2.6884348e-01
-3.0305182e-01
-3.3852638e-01
-3.6100743e-01
-3.5930069e-01
-3.3297176e-01
-3.0060716e-01
-2.9283758e-01
-3.2158642e-01
-3.5393772e-01
-3.3444616e-01
-2.2413109e-01
-1.9350062e-02
2.5105345e-01
5.3047507e-01
7.3986293e-01
8.0908062e-01
7.3185435e-01
5.8476186e-01
4.6936505e-01
4.4935578e-01
5.1673904e-01
5.8912659e-01
5.5319961e-01
3.5328772e-01
5.0750819e-02
-2.3483937e-01
-4.2466147e-01
-5.0311469e-01
-4.8344153e-01
-3.9011076e-01
-2.5479024e-01
-1.2358633e-01
-6.7744191e-02
-1.5500925e-01
-3.8680904e-01
-6.7313890e-01
-8.9691028e-01
-9.9070487e-01
-9.4568113e-01
-7.8049252e-01
-5.1763770e-01
-1.9469431e-01
1.0369217e-01
2.5659826e-01
1.9748480e-01
-1.9503705e-02
-2.7349346e-01
-4.6335689e-01
-5.5001563e-01
-5.4016897e-01
-4.4393892e-01
-2.5123309e-01
6.2168987e-02
5.0757216e-01
1.0743598e+00
1.7317514e+00
2.3994171e+00
2.9351906e+00
3.2314526e+00
3.2185381e+00
2.7894977e+00
1.9572721e+00
9.5564203e-01
4.9855209e-02
-6.2923635e-01
-1.0767362e+00
-1.3440228e+00
-1.4879300e+00
-1.5502948e+00
-1.5665547e+00
-1.5589397e+00
-1.5182329e+00
-1.4335587e+00
-1.3242576e+00
-1.2248029e+00
-1.1458714e+00
-1.0558645e+00
-9.1434796e-01
-7.0818999e-01
-4.5168614e-01
-1.7312460e-01
9.3069382e-02
3.1230228e-01
4.4087734e-01
4.1952631e-01
2.2167875e-01
-8.5556501e-02
-3.6601651e-01
-5.0895562e-01
-4.8727273e-01
-3.5443874e-01
-2.0031007e-01
-7.1911763e-02
6.8195479e-02
2.8775736e-01
6.1020387e-01
9.8412914e-01
1.2851886e+00
1.3959519e+00
1.3038912e+00
1.0819524e+00
8.2278229e-01
6.0268512e-01
4.7461015e-01
4.7799004e-01
6.2398200e-01
8.7536522e-01
1.1066147e+00
1.1073032e+00
7.3756158e-01
8.8757100e-02
-5.8465078e-01
-1.0851192e+00
-1.3606831e+00
-1.4478955e+00
-1.4145314e+00
-1.3236185e+00
-1.2094961e+00
-1.0782278e+00
-9.2234350e-01
-7.4283027e-01
-5.7381609e-01
-4.7425825e-01
-4.7985488e-01
-5.6705051e-01
-6.6272632e-01
-6.9503015e-01
-6.2855358e-01
-4.5151530e-01
-1.6457526e-01
2.2066585e-01
6.8916315e-01
1.2218695e+00
1.7508183e+00
2.1070132e+00
2.0930555e+00
1.6643538e+00
1.0094871e+00
4.0371379e-01
1.5435975e-02
-1.2151645e-01
-5.2023537e-02
1.4987637e-01
4.1260531e-01
6.4361878e-01
7.1804460e-01
5.6465335e-01
2.5216173e-01
-8.1923349e-02
-3.4711274e-01
-5.1300407e-01
-5.7856043e-01
-5.4928914e-01
-4.3024564e-01
-2.2977389e-01
3.4821544e-02
3.2724107e-01
5.7694423e-01
6.9108717e-01
6.1001101e-01
3.5653204e-01
2.9259458e-02
-2.6084137e-01
-4.5188203e-01
-5.4401847e-01
-6.0077254e-01
-7.1794165e-01
-9.2719185e-01
-1.1731910e+00
-1.3965826e+00
-1.5896081e+00
-1.7915763e+00
-2.0572566e+00
-2.4292425e+00
-2.9239301e+00
-3.5127406e+00
-4.1258164e+00
-4.6852156e+00
-5.1305368e+00
-5.4210736e+00
-5.5219943e+00
-5.4042218e+00
-5.0461268e+00
-4.4459073e+00
-3.6635221e+00
-2.8009584e+00
