-3.9751088e-02
6.6356804e-02
1.6896048e-01
2.0259935e-01
1.1748276e-01
3.7488431e-03
-5.3903434e-02
-5.8183519e-02
-4.2088344e-02
-9.1196168e-03
8.4470712e-02
2.5577721e-01
4.1925302e-01
4.2396242e-01
2.7895368e-01
1.4355260e-01
7.2106791e-02
9.3614906e-03
-7.7289589e-02
-1.5656806e-01
-1.8269147e-01
-1.4794255e-01
-6.9182906e-02
-2.2174000e-03
5.0559933e-03
-1.0166285e-02
-1.3380233e-02
-1.8130089e-02
-3.0657860e-02
-4.2802097e-02
-4.7979573e-02
-4.6106976e-02
-4.0508206e-02
-3.4720988e-02
-2.9701226e-02
-2.4839490e-02
-1.9083530e-02
-1.8052811e-02
-2.9977226e-02
-5.0312526e-02
-6.6558237e-02
-7.0683150e-02
-6.1229378e-02
-4.1577958e-02
-1.2144717e-02
3.3802466e-02
9.6089815e-02
1.5499149e-01
1.9854632e-01
1.9294408e-01
1.0795508e-01
5.8126493e-03
-5.7924106e-02
-8.7984449e-02
-9.1306353e-02
-7.0409200e-02
-2.9802478e-02
1.7174276e-03
-9.1375146e-03
-4.8373612e-02
-8.3813820e-02
-1.0633943e-01
-1.1964910e-01
-1.2399285e-01
-1.0580764e-01
-4.8972885e-02
5.4304551e-02
1.3630546e-01
1.2141804e-01
7.5294056e-02
7.9448554e-02
1.3390844e-01
1.5718878e-01
6.8150935e-02
-7.2669975e-02
-1.7002360e-01
-1.9559202e-01
-2.0719359e-01
-2.7164256e-01
-3.2687212e-01
-2.8764756e-01
-1.3208215e-01
7.8579312e-02
2.0780667e-01
2.5680354e-01
3.6019095e-01
5.1575399e-01
5.9810977e-01
5.3293497e-01
3.5501331e-01
1.8699418e-01
9.4065738e-02
1.5708590e-04
-1.4176407e-01
-2.5800041e-01
-3.0358128e-01
-2.9568742e-01
-2.5694125e-01
-2.0868892e-01
-1.5793844e-01
-1.0540104e-01
-5.3859521e-02
-1.4869222e-02
4.0179960e-03
1.2825298e-02
2.0179805e-02
2.6344472e-02
2.6075098e-02
1.0644214e-02
-2.1076268e-02
-5.9235170e-02
-9.4825170e-02
-1.3093500e-01
-1.7040406e-01
-2.0214610e-01
-2.1303622e-01
-1.9560554e-01
-1.5579757e-01
-9.2436808e-02
2.7735766e-02
2.3130877e-01
4.4445692e-01
5.1323111e-01
4.1308495e-01
2.7473914e-01
2.0902988e-01
1.9739499e-01
1.3058540e-01
-6.2306430e-03
-1.2307301e-01
-1.8047702e-01
-1.9527365e-01
-1.9288652e-01
-1.9121932e-01
-1.8474660e-01
-1.6460292e-01
-1.3043895e-01
-1.0202427e-01
-9.9631315e-02
-1.0612379e-01
-1.0014531e-01
-7.5121406e-02
-3.5764900e-02
1.3739278e-02
9.1612010e-02
2.1716164e-01
3.4726662e-01
3.7112013e-01
2.6728019e-01
1.4064028e-01
6.6090951e-02
2.8229116e-02
-2.1946356e-02
-8.8210287e-02
-1.3962727e-01
-1.6597209e-01
-1.7318955e-01
-1.7811805e-01
-1.9549451e-01
-2.1441272e-01
-2.1909561e-01
-2.0520364e-01
-1.7358361e-01
-1.2043415e-01
-2.9186772e-02
1.1922569e-01
2.6880666e-01
2.7686074e-01
1.3643043e-01
4.0653394e-03
-2.5232122e-02
1.1582286e-02
4.5531214e-03
-5.6465218e-02
-5.4593144e-02
7.3441451e-02
2.5551257e-01
3.3829784e-01
2.8263106e-01
2.0684201e-01
1.8797646e-01
1.7262286e-01
8.0228623e-02
-6.5500439e-02
-1.7911513e-01
-2.3243106e-01
-2.3744402e-01
-2.2608764e-01
-2.2542069e-01
-2.0802894e-01
-1.5131921e-01
-1.0601803e-01
-1.2097347e-01
-1.4731448e-01
-1.1964711e-01
-2.1139904e-02
1.2200860e-01
2.2492169e-01
2.6784224e-01
2.8439537e-01
2.7181572e-01
2.2644008e-01
1.1690723e-01
-1.7100643e-02
-8.2887364e-02
-5.8385978e-02
2.6845035e-02
6.2295005e-02
-2.1104243e-02
-1.2851353e-01
-1.7873998e-01
-1.7508793e-01
-1.3677813e-01
-8.0897877e-02
-2.0891715e-03
8.9159489e-02
1.4523066e-01
1.2075445e-01
3.1422949e-02
-5.2403429e-02
-9.3148116e-02
-9.7710288e-02
-7.9177938e-02
-3.9524343e-02
-1.3711443e-02
-4.0422641e-02
-7.1199412e-02
-8.6818999e-02
-1.1507405e-01
-1.2365553e-01
-7.4605897e-02
1.5880284e-02
7.3593767e-02
6.9979717e-02
9.0270696e-02
2.0302025e-01
3.4767704e-01
3.7516801e-01
2.5580403e-01
1.1803903e-01
4.7211339e-02
1.8543211e-02
-3.0552667e-02
-1.0776868e-01
-1.7444062e-01
-2.1545262e-01
-2.3821034e-01
-2.5401256e-01
-2.6757588e-01
-2.7600460e-01
-2.7380462e-01
-2.5648655e-01
-2.2251754e-01
-1.5504208e-01
-2.3753844e-02
1.9226725e-01
4.2696492e-01
5.3403725e-01
4.7726755e-01
3.7346648e-01
3.3385006e-01
3.1131911e-01
1.6329508e-01
-9.8421054e-02
-3.3007256e-01
-4.6653392e-01
-5.1918697e-01
-5.0459269e-01
-4.2319699e-01
-2.5447976e-01
1.5232277e-02
3.0822648e-01
4.6903080e-01
4.5484430e-01
3.8067869e-01
3.7998196e-01
4.2337343e-01
3.4792046e-01
1.3958858e-01
-6.7701869e-02
-2.0634966e-01
-2.8410933e-01
-3.2127744e-01
-3.3754548e-01
-3.4268606e-01
-3.3760228e-01
-3.2138720e-01
-2.9574932e-01
-2.5426459e-01
-1.7673404e-01
-4.5095697e-02
1.2730199e-01
2.5156329e-01
2.6494662e-01
2.5602721e-01
3.1871950e-01
3.9642940e-01
3.5937173e-01
2.1157524e-01
5.3054233e-02
-7.9849094e-02
-1.4743782e-01
-1.7920550e-01
-2.4960570e-01
-3.0399750e-01
-2.7647474e-01
-1.7083503e-01
-6.4528537e-02
-1.9665071e-02
4.4457545e-02
2.0552506e-01
3.9437881e-01
4.5995676e-01
3.4260115e-01
1.3895286e-01
-1.9783392e-02
-8.9741713e-02
-1.2766364e-01
-1.8486673e-01
-2.2545049e-01
-2.1096104e-01
-1.4898954e-01
-9.3571577e-02
-8.8992948e-02
-8.7471678e-02
-4.3511178e-02
4.5084369e-02
1.1521361e-01
1.0413301e-01
8.3536626e-02
1.2492656e-01
2.0931854e-01
2.3244534e-01
1.2247003e-01
-2.6424449e-02
-1.2922962e-01
-1.8739515e-01
-2.2849751e-01
-2.7783517e-01
-3.1558340e-01
-3.1580171e-01
-2.7047069e-01
-2.2393367e-01
-2.1575954e-01
-1.7138878e-01
-1.3537261e-02
2.3421690e-01
4.6155860e-01
5.6446958e-01
5.2394321e-01
4.2898524e-01
3.8693566e-01
3.4252034e-01
1.8162662e-01
-5.4880117e-02
-2.3007946e-01
-3.1718362e-01
-3.9090590e-01
-4.5974700e-01
-4.6509829e-01
-3.7162877e-01
-2.0337323e-01
-6.7727658e-02
-4.9233205e-02
-6.3073705e-02
2.5693522e-02
2.0033776e-01
3.3021418e-01
3.3746195e-01
2.8021409e-01
2.9916674e-01
4.0710219e-01
4.6563716e-01
4.0193729e-01
2.3875168e-01
6.0189263e-02
-2.8187808e-02
-8.0631085e-02
-2.0049153e-01
-3.2341660e-01
-3.8151168e-01
-3.8829355e-01
-3.5991271e-01
-3.1076307e-01
-2.4242420e-01
-1.4331930e-01
-8.3076812e-03
1.0193002e-01
1.2103658e-01
1.0562708e-01
1.3565547e-01
2.1551580e-01
2.5799719e-01
1.7509223e-01
2.9049326e-02
-7.9188492e-02
-1.2523993e-01
-1.2059142e-01
-7.9330163e-02
-6.0351236e-02
-1.1437893e-01
-1.7863646e-01
-1.9572505e-01
-1.6627998e-01
-8.6245533e-02
5.7113529e-02
2.6186585e-01
4.3552601e-01
4.3520664e-01
2.7630136e-01
1.1566349e-01
2.8813771e-02
-1.4538989e-02
-6.4390227e-02
-1.2681230e-01
-1.6800127e-01
-1.7768850e-01
-1.7133942e-01
-1.7574061e-01
-2.0223535e-01
-2.2664578e-01
-2.2881539e-01
-2.0980660e-01
-1.6809441e-01
-9.0242475e-02
4.0044001e-02
2.3117611e-01
4.0930348e-01
4.3847795e-01
3.3618028e-01
2.5477134e-01
2.5288285e-01
2.3356745e-01
1.0944730e-01
-5.1990836e-02
-1.6663233e-01
-2.2894129e-01
-2.5577242e-01
-2.6670070e-01
-2.6561970e-01
-2.4605422e-01
-2.0633213e-01
-1.6798183e-01
-1.5657972e-01
-1.4596806e-01
-9.0131696e-02
2.7967296e-02
1.5866548e-01
2.3608113e-01
2.6395933e-01
2.8905351e-01
3.6870872e-01
4.4815380e-01
3.7874887e-01
1.7267047e-01
-1.7950388e-02
-1.2655871e-01
-1.7712910e-01
-2.0611290e-01
-2.3298956e-01
-2.4453806e-01
-2.3400942e-01
-2.2562706e-01
-2.4174548e-01
-2.6320647e-01
-2.5651022e-01
-2.0628132e-01
-1.0578190e-01
1.0073645e-02
1.0846610e-01
2.4602055e-01
4.2387549e-01
5.1017981e-01
4.1208209e-01
1.9896099e-01
2.9767854e-02
-1.5421405e-02
2.1462434e-02
2.1171644e-02
-6.4986224e-02
-1.4566167e-01
-1.5241486e-01
-1.3848353e-01
-1.6312405e-01
-1.7503006e-01
-1.1646476e-01
1.6196525e-02
1.7377689e-01
2.3449111e-01
1.7116907e-01
1.0214496e-01
1.0143731e-01
1.2444976e-01
8.8537871e-02
-6.0853199e-03
-9.3199660e-02
-1.4630168e-01
-1.7476017e-01
-1.9858896e-01
-2.3323614e-01
-2.6854244e-01
-2.8864627e-01
-2.8820878e-01
-2.6132132e-01
-1.9318214e-01
-6.1535981e-02
1.5058609e-01
3.7515359e-01
4.6180274e-01
4.0812546e-01
3.7644547e-01
4.1325893e-01
4.1113541e-01
2.7671063e-01
3.7678412e-02
-1.8263162e-01
-3.2047497e-01
-3.9058315e-01
-4.1489269e-01
-4.0477912e-01
-3.5472471e-01
-2.5787281e-01
-1.2437385e-01
1.2446537e-02
9.2854212e-02
1.1052058e-01
1.5964928e-01
2.6028901e-01
2.9110069e-01
2.1885223e-01
1.7672021e-01
2.4611561e-01
3.4279286e-01
3.0657853e-01
1.2348995e-01
-6.1612233e-02
-1.7775889e-01
-2.4175775e-01
-2.7759049e-01
-2.9905052e-01
-3.0191200e-01
-2.8364334e-01
-2.6249305e-01
-2.5407028e-01
-2.3591039e-01
-1.7415148e-01
-5.0219530e-02
1.0682634e-01
1.8325049e-01
1.4961295e-01
1.4806586e-01
2.5349308e-01
3.8948873e-01
4.4163501e-01
3.5779245e-01
2.1912846e-01
1.4783979e-01
1.4090289e-01
7.4444953e-02
-9.5354206e-02
-2.6984146e-01
-3.8290042e-01
-4.4326103e-01
-4.6386229e-01
-4.4430201e-01
-3.7114195e-01
-2.3317435e-01
-2.7386229e-02
1.7468965e-01
2.6998683e-01
3.1114570e-01
4.2092079e-01
5.5228759e-01
5.4662388e-01
3.3983040e-01
2.2452321e-02
-2.5178510e-01
-4.1598437e-01
-4.8240200e-01
-4.5588348e-01
-3.3141088e-01
-1.0862777e-01
1.2854084e-01
2.3962837e-01
1.9106845e-01
7.0564326e-02
-3.8748289e-03
-2.4185081e-02
-9.2925389e-02
-2.3357270e-01
-3.4341479e-01
-3.1338929e-01
-1.5614368e-01
4.9254838e-03
8.6770242e-02
1.2502472e-01
1.7231561e-01
2.1595087e-01
2.3708575e-01
2.5084247e-01
2.9153242e-01
3.5875453e-01
4.0679225e-01
4.0157855e-01
3.3674572e-01
2.4737367e-01
1.5953719e-01
7.2608264e-02
-9.4288326e-04
-8.3673800e-02
-1.7198268e-01
-2.3702900e-01
-2.9710152e-01
-3.4374200e-01
-3.5470283e-01
-3.2843196e-01
-2.6495386e-01
-1.7095013e-01
-1.1505270e-01
-1.6468390e-01
-2.5860218e-01
-3.2883711e-01
-3.6708031e-01
-3.6730942e-01
-3.1455643e-01
-1.6321341e-01
1.0331750e-01
3.9963731e-01
6.1331089e-01
7.0885719e-01
7.2121956e-01
6.9625370e-01
6.2417444e-01
4.5516056e-01
1.5951951e-01
-2.0470852e-01
-4.9982087e-01
-6.5373873e-01
-6.8058451e-01
-5.9634270e-01
-4.0028467e-01
-1.3365618e-01
8.9699120e-02
1.8457631e-01
1.8506564e-01
2.0444619e-01
2.9759599e-01
3.8327013e-01
3.4939431e-01
2.2946972e-01
1.4089867e-01
9.7826190e-02
3.0457253e-02
-8.9278585e-02
-1.9336993e-01
-2.2120466e-01
-1.7596425e-01
-7.8567570e-02
-1.4968830e-02
-5.3139244e-02
-1.2103347e-01
-1.5134208e-01
-1.5515573e-01
-1.5878603e-01
-1.6736214e-01
-1.5174387e-01
-9.6098065e-02
-1.8579878e-02
3.6383225e-02
5.9211405e-02
1.1144286e-01
2.4176369e-01
3.8517437e-01
3.8590844e-01
2.2302768e-01
4.0641523e-02
-8.0788377e-02
-1.4889635e-01
-1.9407926e-01
-2.3894933e-01
-2.6032493e-01
-2.3371518e-01
-1.6759898e-01
-1.0507271e-01
-6.4990972e-02
3.5145583e-03
1.3611050e-01
2.6801430e-01
2.7236241e-01
1.5545913e-01
6.0140158e-02
5.5545310e-02
9.4071463e-02
7.3107302e-02
-3.3025686e-02
-1.3298786e-01
-1.6645306e-01
-1.5053750e-01
-1.0941555e-01
-9.0391411e-02
-1.2845592e-01
-1.4871871e-01
-9.5791348e-02
-3.7355522e-02
-1.7683806e-02
3.3673172e-02
1.5306036e-01
2.5515532e-01
2.4694970e-01
1.6533153e-01
1.3828217e-01
2.2111199e-01
3.2822897e-01
2.9679209e-01
1.1880049e-01
-5.4064088e-02
-1.5316623e-01
-2.0175141e-01
-2.2111420e-01
-2.1531921e-01
-1.8650553e-01
-1.4157837e-01
-9.1579690e-02
-5.0264138e-02
-1.9914927e-02
6.4341238e-03
3.5350509e-02
5.8387235e-02
5.7527120e-02
3.5751122e-02
1.0159955e-02
-1.5701798e-02
-5.6250336e-02
-1.1784223e-01
-1.8252023e-01
-2.3382208e-01
-2.6548406e-01
-2.7473621e-01
-2.5657640e-01
-1.9380532e-01
-6.6418140e-02
8.2580518e-02
1.6844100e-01
1.6452122e-01
1.2780425e-01
1.7252635e-01
3.1956940e-01
4.5375652e-01
4.7860285e-01
3.8203641e-01
2.5002457e-01
2.0576574e-01
2.1932079e-01
1.4347014e-01
-3.2581571e-02
-1.9163242e-01
-2.7939291e-01
-3.1319885e-01
-3.1164875e-01
-2.8425004e-01
-2.3597904e-01
-1.7983261e-01
-1.4266181e-01
-1.3699548e-01
-1.3980272e-01
-1.2323792e-01
-7.2002950e-02
5.2235904e-03
8.2227575e-02
1.6342079e-01
2.6752918e-01
3.5733874e-01
3.3538885e-01
1.8044754e-01
-1.7293758e-02
-1.9171418e-01
-3.1596959e-01
-3.7604689e-01
-3.7140391e-01
-2.9529375e-01
-1.3900547e-01
8.5352489e-02
2.9666383e-01
4.0665660e-01
4.4167817e-01
4.5726641e-01
4.1844531e-01
2.6264315e-01
2.6387887e-02
-1.7967448e-01
-3.0718614e-01
-3.6729712e-01
-3.7277452e-01
-3.3081758e-01
-2.4157900e-01
-1.0613341e-01
4.4990587e-02
1.3462803e-01
1.4924267e-01
1.1830691e-01
3.6435712e-02
-4.4619939e-02
-8.3198694e-02
-7.8298169e-02
-7.6012349e-03
1.2929035e-01
2.6352262e-01
2.7679911e-01
1.5824496e-01
3.2022432e-02
-2.0802977e-02
-5.5960466e-02
-1.4806989e-01
-2.5135421e-01
-2.9373002e-01
-2.5847618e-01
-1.5394980e-01
-6.9789470e-02
-6.8232706e-02
-4.5403410e-02
8.8421039e-02
2.6443805e-01
3.3974353e-01
3.1059215e-01
2.8046225e-01
2.8552860e-01
2.9277563e-01
1.9694493e-01
-5.7263356e-03
-1.8477595e-01
-2.8604004e-01
-3.3247521e-01
-3.4158940e-01
-3.0819001e-01
-2.2174048e-01
-8.3710434e-02
3.8671393e-02
5.4261721e-02
5.1004876e-03
-3.3754598e-03
5.7081337e-02
1.1448393e-01
8.4218408e-02
1.5631428e-02
1.5952154e-02
1.1937630e-01
2.3785028e-01
2.2165163e-01
8.5874299e-02
-3.0404092e-02
-7.9646939e-02
-1.2991312e-01
-2.2760050e-01
-3.0063035e-01
-2.8566564e-01
-1.8123526e-01
-6.5283734e-02
-4.6633693e-02
-6.8208370e-02
2.1279388e-03
1.5317870e-01
2.6026701e-01
2.4378264e-01
1.6821545e-01
1.8094406e-01
2.9573555e-01
3.7005593e-01
3.0297610e-01
1.5665899e-01
7.3879955e-02
3.4480322e-02
-8.1849604e-02
-2.4889437e-01
-3.7683744e-01
-4.4348150e-01
-4.5591679e-01
-4.1188996e-01
-3.0373883e-01
-1.2467794e-01
1.2873714e-01
3.8616192e-01
5.0110988e-01
4.1394041e-01
2.2041206e-01
5.6505951e-02
-2.6534315e-02
-8.4086456e-02
-1.6263884e-01
-2.1134606e-01
-1.8255483e-01
-1.0408694e-01
-6.1936029e-02
-8.5000062e-02
-8.0383159e-02
1.6917608e-02
1.3922311e-01
1.5111430e-01
5.4349071e-02
-1.1923248e-02
-1.4431274e-02
8.5659795e-03
3.2106414e-02
1.6795590e-02
1.6096678e-02
1.1308908e-01
2.4111342e-01
2.4228988e-01
1.1533722e-01
7.7334481e-03
-1.7929292e-02
-2.4573882e-02
-9.2496523e-02
-2.0466561e-01
-2.8862594e-01
-3.1917944e-01
-3.2026952e-01
-3.1205182e-01
-2.6745849e-01
-1.4927758e-01
5.7291531e-02
2.7987924e-01
3.7923897e-01
3.7637074e-01
4.2167446e-01
5.0356480e-01
4.6455482e-01
2.7123015e-01
4.4790132e-02
-1.1922050e-01
-2.0795529e-01
-2.4576560e-01
-2.5448933e-01
-2.3434335e-01
-1.8510528e-01
-1.1750909e-01
-7.3098779e-02
-8.6481157e-02
-1.2409713e-01
-1.5097964e-01
-1.6275752e-01
-1.5822190e-01
-1.3824018e-01
-9.3598433e-02
-6.5620210e-03
1.0775497e-01
1.6102845e-01
1.2026196e-01
8.8996483e-02
1.4317021e-01
2.3335031e-01
2.2836933e-01
1.0237161e-01
-1.5523303e-02
-4.8048695e-02
-4.7049781e-02
-9.4271202e-02
-1.6747571e-01
-1.8534542e-01
-1.1940294e-01
9.8962508e-03
1.0045609e-01
9.0275523e-02
8.2341678e-02
1.4477604e-01
2.1083861e-01
1.7855502e-01
4.6606829e-02
-7.0623406e-02
-1.0725120e-01
-8.7889727e-02
-7.9544022e-02
-1.0679347e-01
-1.1145207e-01
-5.2814123e-02
4.9960259e-02
1.0499787e-01
5.8083716e-02
-1.1627218e-03
-4.4098584e-03
1.3218488e-02
7.2791185e-03
-5.7963290e-03
1.5646120e-02
7.6503418e-02
9.4973273e-02
-8.1146902e-03
-1.6300922e-01
-2.8153871e-01
-3.4939124e-01
-3.6571800e-01
-3.2578714e-01
-2.1738073e-01
-2.5526636e-02
2.2908433e-01
4.4566226e-01
5.2389128e-01
5.0081259e-01
4.6872256e-01
3.8444661e-01
1.9310570e-01
-2.0592518e-02
-1.7433423e-01
-2.5500230e-01
-2.7345601e-01
-2.6528256e-01
-2.5400066e-01
-2.1728017e-01
-1.3516844e-01
-1.8600415e-02
7.0242265e-02
8.4332724e-02
8.3794924e-02
1.2837714e-01
1.7361115e-01
1.3935452e-01
4.0691903e-02
-4.7067873e-02
-9.4228623e-02
-1.0766348e-01
-1.0226849e-01
-8.3070638e-02
-4.4034994e-02
1.9183471e-02
5.2381943e-02
-3.2903077e-03
-9.5745261e-02
-1.6300106e-01
-1.9602831e-01
-1.9596799e-01
-1.7222908e-01
-1.1891393e-01
-1.3392159e-02
1.3388693e-01
2.6037888e-01
2.8833563e-01
2.3049824e-01
2.0280880e-01
2.2940141e-01
1.8633608e-01
3.1098094e-02
-1.1749732e-01
-1.7907455e-01
-1.5679732e-01
-1.2683179e-01
-1.6383159e-01
-1.9935322e-01
-1.5596098e-01
-3.4429351e-02
7.7805104e-02
6.3998132e-02
-2.8704653e-02
-6.4363964e-02
1.2326438e-02
1.3127810e-01
1.8180030e-01
2.0089746e-01
2.8800488e-01
3.8661175e-01
3.4813945e-01
1.6914503e-01
-1.4788677e-02
-1.2915642e-01
-1.9230788e-01
-2.3369604e-01
-2.5273711e-01
-2.4060074e-01
-2.0458869e-01
-1.5873602e-01
-1.1295453e-01
-6.3379616e-02
3.9025028e-03
9.5296074e-02
1.5758525e-01
1.3064006e-01
5.3783646e-02
-2.2451617e-02
-9.1790648e-02
-1.4642180e-01
-1.7589512e-01
-1.6879665e-01
-1.1404727e-01
-1.0091948e-02
7.8375810e-02
8.2074856e-02
6.0494092e-02
9.9407251e-02
1.6907375e-01
1.5100832e-01
1.3007710e-02
-1.3130275e-01
-1.9011672e-01
-1.6384878e-01
-1.1610625e-01
-8.9029508e-02
-2.6409071e-02
1.4032779e-01
3.5576991e-01
4.6745337e-01
4.0825698e-01
2.4756661e-01
8.1939819e-02
-6.2615062e-02
-1.9280233e-01
-2.7069875e-01
-2.6430462e-01
-1.7695713e-01
-6.6968885e-02
-4.1524124e-02
-1.1174953e-01
-1.8010708e-01
-1.8026187e-01
-1.1594212e-01
-5.6317882e-02
-3.2135656e-02
4.2625866e-02
2.1445967e-01
3.9477371e-01
4.5128608e-01
3.6305558e-01
2.3873832e-01
1.5242341e-01
6.0255228e-02
-7.5497919e-02
-2.0253717e-01
-2.7733844e-01
-3.0116541e-01
-2.9142163e-01
-2.6659021e-01
-2.1968436e-01
-1.3610947e-01
-2.0164129e-02
7.4152119e-02
8.9989105e-02
6.9133465e-02
9.1558244e-02
1.2171387e-01
6.5911536e-02
-3.9345603e-02
-9.0724677e-02
-5.3061997e-02
3.4788267e-02
6.5387346e-02
-3.8043345e-04
-5.1634243e-02
3.8250170e-03
9.9909453e-02
8.0662950e-02
-5.5694364e-02
-1.5094307e-01
-1.1877382e-01
-6.1526201e-03
7.8018390e-02
1.2390105e-01
2.3708251e-01
4.0352049e-01
4.7486553e-01
3.6249797e-01
1.2281237e-01
-9.7660028e-02
-2.2822731e-01
-2.8654531e-01
-3.0678760e-01
-3.1757271e-01
-3.0842997e-01
-2.7256671e-01
-2.3744515e-01
-2.1409891e-01
-1.6929051e-01
-6.6249915e-02
1.0904273e-01
2.8731478e-01
3.3348529e-01
2.6175968e-01
2.0795583e-01
2.2751368e-01
2.5852280e-01
1.8371157e-01
1.3304480e-02
-1.2762183e-01
-2.0158572e-01
-2.4833393e-01
-2.7489701e-01
-2.4805063e-01
-1.4869318e-01
-3.1510077e-02
1.9267839e-03
-3.6966672e-02
-3.2338407e-02
7.5712961e-02
2.2628827e-01
2.7976881e-01
1.9174758e-01
7.0840983e-02
2.8012076e-02
4.0028225e-02
4.1131043e-03
-7.1990616e-02
-9.2083502e-02
-1.9236876e-02
7.5022943e-02
5.9575089e-02
-6.9806532e-02
-1.8538200e-01
-2.2046494e-01
-1.8138724e-01
-1.0476551e-01
-1.2245917e-02
1.3823201e-01
3.2579695e-01
4.1704426e-01
3.1996956e-01
9.8303693e-02
-1.0559347e-01
-2.3358394e-01
-3.1669629e-01
-3.7881592e-01
-3.9842568e-01
-3.4700566e-01
-2.1539513e-01
-6.2408789e-02
3.5483230e-04
-7.8429489e-03
2.4808486e-02
6.9367839e-02
7.5049435e-02
8.6561436e-02
1.4413373e-01
2.7882289e-01
4.2974754e-01
4.9566389e-01
4.5666129e-01
3.8104613e-01
3.3949470e-01
2.6412680e-01
5.3741679e-02
-2.5059477e-01
-5.1201184e-01
-6.6074514e-01
-7.1192074e-01
-6.8494643e-01
-5.7347259e-01
-3.5802652e-01
-7.4384464e-02
1.8013923e-01
3.6485542e-01
4.9394041e-01
5.5328444e-01
5.2315641e-01
3.9222228e-01
2.3115366e-01
1.2829916e-01
9.1177078e-02
1.1765667e-01
1.2608519e-01
1.6137222e-02
-1.6002589e-01
-2.6408119e-01
-2.5807269e-01
-2.4479128e-01
-2.8693319e-01
-3.0907106e-01
-2.3484552e-01
-8.9426517e-02
3.2666419e-02
8.0988614e-02
1.0893510e-01
1.8184882e-01
2.6047926e-01
2.1950890e-01
6.8803447e-02
-3.2788185e-02
-3.6015207e-03
1.0311329e-01
1.5839087e-01
9.9977266e-02
1.1597654e-02
-1.8739073e-02
-3.6791122e-02
-1.2174108e-01
-2.3380907e-01
-3.0353828e-01
-3.1043954e-01
-2.5482103e-01
-1.5953499e-01
-3.2793108e-02
1.5416599e-01
3.6280508e-01
4.6234192e-01
3.8296530e-01
2.0092694e-01
4.5959874e-02
-3.1770776e-02
-7.2128792e-02
-1.1285306e-01
-1.3476499e-01
-1.1735791e-01
-7.2309376e-02
-3.6011795e-02
-3.5523997e-02
-5.4203795e-02
-7.3860205e-02
-8.8675100e-02
-1.0011681e-01
-1.1340883e-01
-1.2084928e-01
-1.0997084e-01
-7.9459126e-02
-4.3471160e-02
-6.4721129e-03
5.4454009e-02
1.6123219e-01
2.6277513e-01
2.3239236e-01
5.9651807e-02
-1.1952375e-01
-2.3195204e-01
-2.9828679e-01
-3.4312276e-01
-3.4900449e-01
-2.7315598e-01
-9.2584104e-02
1.4987311e-01
3.5277244e-01
5.0336637e-01
6.4184634e-01
7.0146067e-01
5.9888319e-01
3.5772342e-01
9.3405312e-02
-1.0223602e-01
-2.2199548e-01
-2.8031320e-01
-2.8779346e-01
-2.6098508e-01
-2.1839076e-01
-1.7473905e-01
-1.3874337e-01
-1.1533932e-01
-1.0743994e-01
-1.1748246e-01
-1.4544464e-01
-1.8740747e-01
-2.3760926e-01
-2.8581311e-01
-3.1851503e-01
-3.2063214e-01
-2.7938099e-01
-1.7856536e-01
1.2965519e-02
2.6093189e-01
4.4728706e-01
4.9687400e-01
4.0647090e-01
2.6806647e-01
2.3091797e-01
2.8902566e-01
3.0835801e-01
2.4767097e-01
1.8965734e-01
1.9105151e-01
1.7616686e-01
4.1163708e-02
-1.9341764e-01
-4.0406991e-01
-5.2707402e-01
-5.8241727e-01
-5.6728227e-01
-4.5720007e-01
-2.4499360e-01
4.3635766e-03
1.5844896e-01
1.5941916e-01
7.9523659e-02
1.3570450e-02
3.2314667e-02
1.3985532e-01
2.2879441e-01
2.6023808e-01
3.1199883e-01
4.0225576e-01
4.7382263e-01
4.8601334e-01
4.6468420e-01
4.3015916e-01
3.1438866e-01
8.0875333e-02
-1.9176805e-01
-4.0727659e-01
-5.3805266e-01
-6.0731353e-01
-6.3746008e-01
-6.3548916e-01
-5.9649015e-01
-5.1279425e-01
-3.8719196e-01
-2.4482529e-01
-1.0585184e-01
2.6671663e-02
1.0860913e-01
1.5316436e-01
2.3519155e-01
3.1481191e-01
3.4671064e-01
3.4999488e-01
3.2979739e-01
2.9347539e-01
2.6093832e-01
2.4300951e-01
2.3418915e-01
2.2391182e-01
1.9838341e-01
1.5612283e-01
1.1840890e-01
8.8470292e-02
2.7858899e-02
-1.0503797e-01
-2.6392951e-01
-3.1311545e-01
-2.0713515e-01
-5.8025480e-02
2.2117278e-03
-1.3621986e-02
-2.3849751e-02
-6.4059793e-02
-1.5461715e-01
-2.1844093e-01
-2.0690366e-01
-9.1358812e-02
7.0702731e-02
1.5276646e-01
1.7027747e-01
2.3137146e-01
3.4060824e-01
3.7778473e-01
2.5042007e-01
1.8187231e-02
-1.8994139e-01
-3.2235036e-01
-3.9467084e-01
-4.2566244e-01
-4.1796257e-01
-3.6168544e-01
-2.5506770e-01
-1.4072138e-01
-7.8205385e-02
-4.3357991e-02
4.9613402e-02
1.8343718e-01
2.3568663e-01
1.6221808e-01
5.9991194e-02
3.9110026e-02
9.6744394e-02
1.6019738e-01
1.8284744e-01
2.2676875e-01
3.3930515e-01
4.1922917e-01
3.7797587e-01
2.1236892e-01
-2.0193378e-03
-1.6125273e-01
-2.4803569e-01
-3.0121391e-01
-3.3025339e-01
-2.9416432e-01
-1.7308480e-01
-4.0880143e-02
-1.6608115e-02
-8.8825344e-02
-1.2396421e-01
-7.7557250e-02
-1.2004613e-02
1.6000853e-02
3.3874362e-02
1.2137907e-01
2.6412185e-01
3.3814569e-01
2.6287039e-01
1.1244466e-01
2.8020509e-02
3.1159158e-02
3.5733750e-02
-3.6823107e-03
-4.6615614e-02
-4.3341898e-02
-3.0930779e-02
-8.7521455e-02
-2.0912064e-01
-3.3218034e-01
-4.1898189e-01
-4.5827037e-01
-4.5974107e-01
-4.3288376e-01
-3.4429922e-01
-1.4965484e-01
1.1092502e-01
3.1298767e-01
4.0394861e-01
4.2023371e-01
4.2048005e-01
4.4407984e-01
4.4412431e-01
3.7267306e-01
2.9875061e-01
2.8863816e-01
2.5883428e-01
1.1938948e-01
-8.7751018e-02
-2.4316817e-01
-2.9805969e-01
-3.1701974e-01
-3.5141382e-01
-3.7318322e-01
-3.1855119e-01
-1.6398849e-01
2.8484351e-02
1.3850210e-01
1.5723736e-01
2.1502396e-01
3.1432086e-01
3.0229618e-01
1.3126554e-01
-8.9451148e-02
-2.5093901e-01
-3.2447641e-01
-3.4002451e-01
-3.2488583e-01
-2.5365980e-01
-9.2873735e-02
1.2259675e-01
2.8564265e-01
3.1555468e-01
2.6700140e-01
2.6918282e-01
3.0490936e-01
2.5448066e-01
1.1117244e-01
-5.3686025e-02
-1.7647567e-01
-2.3297854e-01
-2.3664815e-01
-1.9819901e-01
-1.1790711e-01
5.2719641e-04
1.1595883e-01
1.4775848e-01
8.2343592e-02
-4.5651919e-03
-7.1364887e-02
-1.3216310e-01
-2.0928903e-01
-3.0228764e-01
-3.8066793e-01
-4.2175458e-01
-4.1902949e-01
-3.6731094e-01
-2.4664394e-01
-2.1157210e-02
2.6406728e-01
4.7666821e-01
5.5253749e-01
5.4000174e-01
5.4896385e-01
6.1238180e-01
6.2975374e-01
5.2145381e-01
2.7622206e-01
-3.9818542e-02
-3.0525156e-01
-4.7488134e-01
-5.6381676e-01
-5.7405799e-01
-5.1038512e-01
-4.4703195e-01
-4.4956578e-01
-4.4679076e-01
-3.5857519e-01
-1.6881478e-01
9.9553101e-02
3.7044261e-01
5.6930198e-01
6.7110526e-01
6.8457490e-01
6.1127892e-01
4.4471070e-01
2.0721280e-01
-1.3175505e-02
-1.0896035e-01
-1.0923884e-01
-1.5099743e-01
-2.4722158e-01
-2.9482416e-01
-2.4448925e-01
-1.3497310e-01
-5.6507912e-02
-5.2159278e-02
-7.0812136e-02
-6.2495313e-02
-2.1317527e-02
1.9618759e-03
-3.1292384e-02
-6.1479395e-02
-3.8611410e-02
2.1055996e-02
5.6095928e-02
3.7994967e-02
2.9277374e-02
7.0285711e-02
1.2923842e-01
1.3213410e-01
5.5770563e-02
-1.9903169e-02
-4.0337013e-02
-1.9625222e-02
-9.5578876e-03
-4.2738890e-02
-7.9062944e-02
-8.8428088e-02
-8.9433915e-02
-1.1255742e-01
-1.5417428e-01
-1.7369625e-01
-1.4766700e-01
-1.2907408e-01
-1.7223794e-01
-2.1035401e-01
-1.6553342e-01
-2.2671931e-02
1.7043974e-01
2.9541901e-01
3.0090752e-01
2.8149488e-01
3.0492247e-01
2.9086808e-01
1.6246932e-01
-3.1549946e-02
-1.6676906e-01
-1.5889688e-01
-5.9798423e-02
-1.3372913e-02
-4.4535378e-02
-3.3769685e-02
4.8718637e-02
1.0199939e-01
5.3745498e-02
-5.4604109e-02
-1.1359186e-01
-1.0261014e-01
-5.5307375e-02
1.2865042e-02
6.9260603e-02
1.6247078e-01
3.0083287e-01
3.5257973e-01
2.2498319e-01
-1.9416817e-02
-2.3105704e-01
-3.4310526e-01
-3.7779962e-01
-3.6130631e-01
-2.8957343e-01
-1.4347260e-01
5.8771985e-02
2.4452768e-01
3.3114476e-01
3.0785578e-01
2.4874928e-01
2.0728260e-01
1.2138953e-01
-4.7059925e-02
-2.0077289e-01
-2.8252125e-01
-3.2220264e-01
-3.2749853e-01
-2.7417435e-01
-1.4008366e-01
8.3064299e-02
3.2303702e-01
4.2991993e-01
3.3165482e-01
1.0956441e-01
-8.5867974e-02
-1.8034531e-01
-2.1627791e-01
-2.3639297e-01
-2.0110816e-01
-9.1456216e-02
5.6240667e-02
1.7525935e-01
1.9107313e-01
1.5510373e-01
1.9276295e-01
2.8932323e-01
3.0201157e-01
1.5237463e-01
-8.5441959e-02
-2.7730159e-01
-3.7374639e-01
-3.9659147e-01
-3.5089612e-01
-2.2177167e-01
-9.4999053e-03
2.1491887e-01
3.3969820e-01
3.1459765e-01
2.0264982e-01
1.3464697e-01
1.6357207e-01
2.0646511e-01
1.4543168e-01
-2.2788040e-02
-1.9815079e-01
-3.1604992e-01
-3.7119045e-01
-3.7532761e-01
-3.3319902e-01
-2.3382450e-01
-6.4800880e-02
1.2795951e-01
2.4502674e-01
2.4961813e-01
2.1225292e-01
2.2255595e-01
2.4228804e-01
1.6863246e-01
4.1899931e-02
-3.0739507e-02
-2.2806997e-02
9.9127561e-03
-5.6461469e-03
-5.0117033e-02
-5.4951455e-02
-1.0671594e-02
1.8902796e-02
-2.2271131e-02
-9.4855377e-02
-1.4572894e-01
-1.7343174e-01
-1.8384465e-01
-1.7099415e-01
-1.2150655e-01
-2.6099237e-02
1.0514663e-01
1.8192837e-01
1.3648215e-01
5.8346279e-02
3.1686700e-02
6.4855509e-02
9.8143647e-02
6.1805088e-02
1.1856846e-02
1.8345988e-02
5.5252601e-02
4.3308453e-02
-3.7013390e-02
-1.1528265e-01
-1.4526875e-01
-1.4247526e-01
-1.4262427e-01
-1.4490892e-01
-1.0967605e-01
-1.2747325e-02
1.3341460e-01
2.4585430e-01
2.3920531e-01
1.6452171e-01
1.2573126e-01
1.0810765e-01
4.5113140e-02
-3.4386705e-02
-7.1770159e-02
-5.8654305e-02
-3.0047285e-02
-3.1787479e-02
-6.4975885e-02
-1.0143323e-01
-1.1920912e-01
-1.2384812e-01
-1.3831737e-01
-1.6008037e-01
-1.6325292e-01
-1.2640943e-01
-4.4588505e-02
3.6023496e-02
6.5536998e-02
8.7543422e-02
1.6581111e-01
2.7363073e-01
3.0369550e-01
2.1815046e-01
1.1253811e-01
5.0609624e-02
2.8757595e-02
6.3874555e-03
-6.1483598e-02
-1.3077628e-01
-1.5262971e-01
-1.2872187e-01
-1.2730107e-01
-2.1544742e-01
-3.2500702e-01
-3.8426832e-01
-3.8409703e-01
-3.0978139e-01
-1.5241401e-01
5.5011147e-02
2.6611874e-01
4.3873642e-01
5.0856943e-01
4.5915534e-01
3.4682719e-01
2.6444394e-01
2.3258093e-01
1.4350607e-01
-4.3557130e-02
-2.2134156e-01
-2.8263166e-01
-2.0206769e-01
-4.5712587e-02
6.7990373e-02
1.0455328e-01
9.9192402e-02
6.7355017e-02
4.6175409e-02
2.0805900e-02
-5.5367489e-02
-1.2019119e-01
-1.1766219e-01
-1.1378678e-01
-1.5965072e-01
-1.8652200e-01
-1.3775523e-01
-5.7935388e-02
-3.5767302e-02
-9.8925704e-02
-1.7881006e-01
-1.9381471e-01
-1.0362885e-01
3.0315798e-02
9.2079225e-02
9.4084053e-02
1.5108720e-01
2.7246779e-01
3.4059566e-01
2.7783669e-01
1.3577273e-01
4.6666915e-02
9.3452604e-02
2.1437432e-01
2.6645672e-01
1.8231438e-01
1.9415155e-02
-1.2310589e-01
-2.0080102e-01
-2.2773761e-01
-2.1172892e-01
-1.5000490e-01
-8.5165009e-02
-5.6648831e-02
-4.5677744e-02
-3.5583870e-02
-7.5031241e-03
5.3371024e-02
7.5228457e-02
-1.0310055e-02
-1.3758437e-01
-2.3380735e-01
-2.9963500e-01
-3.4328650e-01
-3.4990081e-01
-2.9170580e-01
-1.5023131e-01
4.2986084e-02
2.0016752e-01
2.7056284e-01
3.1636395e-01
4.2603616e-01
5.5607100e-01
5.9996493e-01
5.2552557e-01
3.7023786e-01
1.7438706e-01
-3.9678377e-02
-2.2723905e-01
-3.5424292e-01
-4.1925273e-01
-4.3109403e-01
-4.0513348e-01
-3.5582053e-01
-2.9034746e-01
-2.0332844e-01
-8.2276888e-02
6.6132263e-02
1.5869542e-01
1.3603647e-01
9.0549446e-02
1.1642282e-01
1.6589060e-01
1.7772151e-01
1.4649571e-01
7.1692548e-02
2.6778775e-02
5.9150779e-02
6.6627053e-02
-1.0112018e-02
-7.4755482e-02
-5.5551981e-02
4.1251997e-02
1.5720541e-01
1.7260390e-01
6.3056759e-02
-7.3154540e-02
-1.6976884e-01
-2.2207895e-01
-2.3687765e-01
-2.1815740e-01
-1.6037634e-01
-5.7832166e-02
6.6428967e-02
1.3216247e-01
1.0001923e-01
5.1204892e-02
5.8829063e-02
1.0711634e-01
1.1573193e-01
5.3902005e-02
-3.6074270e-04
5.8102420e-03
3.8882248e-02
2.5704772e-02
-4.2281684e-02
-9.4538923e-02
-9.4932138e-02
-7.0766979e-02
-5.3139893e-02
-2.6692074e-02
3.4706148e-02
1.3865554e-01
2.1126539e-01
1.5516735e-01
2.6863548e-02
-8.0705514e-02
-1.5411243e-01
-1.9480266e-01
-2.0257443e-01
-1.7796454e-01
-1.2330149e-01
-4.3183384e-02
1.0677044e-02
-1.1600015e-02
-4.8707644e-02
-2.8442675e-02
3.8529529e-02
6.7274057e-02
1.3237659e-02
-3.4926902e-02
6.6969766e-03
1.3680546e-01
2.8736768e-01
3.4490800e-01
2.7705641e-01
1.8361556e-01
1.5175013e-01
1.5388450e-01
9.1430829e-02
-5.1800359e-02
-1.8885738e-01
-2.7494110e-01
-3.1770126e-01
-3.2896641e-01
-3.1496689e-01
-2.7005709e-01
-1.8752854e-01
-6.1944796e-02
5.6091907e-02
1.1797334e-01
1.9203265e-01
3.0339419e-01
3.3755493e-01
2.3325345e-01
7.9451764e-02
-2.3853104e-02
-4.9903788e-02
-3.0677237e-02
-3.5817271e-02
-7.6150944e-02
-1.0857871e-01
-1.1719325e-01
-9.7564964e-02
-7.5848347e-02
-7.1025787e-02
-3.6691152e-02
4.6878489e-02
9.6451221e-02
4.0412872e-02
-5.8149140e-02
-1.1076310e-01
-8.6011491e-02
-4.0147622e-02
-3.7302657e-02
-8.6139729e-03
1.1707908e-01
2.8431658e-01
3.6679073e-01
2.8974212e-01
1.0167632e-01
-7.9562944e-02
-1.8300882e-01
-2.0598999e-01
-1.8576852e-01
-1.6357215e-01
-1.2010253e-01
-1.3606828e-02
1.1830547e-01
1.6094298e-01
9.8657038e-02
4.7670740e-02
7.0420593e-02
1.1715980e-01
9.9924055e-02
1.6475736e-02
-4.7715735e-02
-5.6420165e-02
-3.2915364e-02
-4.2543575e-02
-1.2539244e-01
-2.1901354e-01
-2.7150225e-01
-2.8392858e-01
-2.5311697e-01
-1.6829789e-01
-1.8137256e-02
2.0725660e-01
4.4044952e-01
5.3883867e-01
4.6250583e-01
3.1026971e-01
1.7453117e-01
6.3858708e-02
-3.9680968e-02
-1.3391731e-01
-2.0515064e-01
-2.5219303e-01
-2.8618250e-01
-3.1258941e-01
-3.3270075e-01
-3.4250801e-01
-3.3408456e-01
-3.3329978e-01
-3.6439002e-01
-3.7313568e-01
-2.9559361e-01
-1.0176511e-01
1.6144494e-01
3.7265689e-01
4.9508352e-01
5.6223364e-01
5.9126725e-01
5.9308433e-01
5.6873253e-01
5.2684243e-01
4.8007857e-01
4.1532716e-01
2.9113534e-01
7.9377199e-02
-1.6090086e-01
-3.3164772e-01
-4.0706909e-01
-4.1357532e-01
-3.7931833e-01
-3.2747683e-01
-2.7217166e-01
-2.2348230e-01
-1.9692970e-01
-2.0350751e-01
-2.3264140e-01
-2.6830986e-01
-3.0039695e-01
-3.1449838e-01
-2.9367658e-01
-2.1995086e-01
-7.4297100e-02
1.6243334e-01
4.4443501e-01
6.4600736e-01
7.0265756e-01
6.6633976e-01
5.8030377e-01
4.2531261e-01
2.0528714e-01
-3.3981373e-02
-2.2877406e-01
-3.3986062e-01
-3.7548845e-01
-3.5420803e-01
-2.8967071e-01
-1.8819621e-01
-5.1965700e-02
3.6980167e-02
-3.6820842e-03
-9.3952695e-02
-1.4982838e-01
-1.6824706e-01
-1.5922811e-01
-1.3333052e-01
-8.3821041e-02
5.8097726e-03
1.5462114e-01
2.9392182e-01
2.8214008e-01
1.3845050e-01
1.7348494e-02
-6.6802355e-03
9.0565220e-03
-1.7909820e-02
-5.0836776e-02
-9.3118807e-03
1.1836902e-01
2.5524571e-01
2.6412810e-01
1.3220339e-01
-1.5539956e-02
-1.1056886e-01
-1.6288688e-01
-1.8363777e-01
-1.7056365e-01
-1.2199856e-01
-3.8202828e-02
6.1264230e-02
1.0953347e-01
7.3986921e-02
9.7627124e-03
-3.6264154e-02
-6.1037235e-02
-6.9408617e-02
-6.5368923e-02
-5.3360768e-02
-3.3750062e-02
-8.9260045e-03
9.3125807e-05
-1.6728519e-02
-3.5616940e-02
-4.1513137e-02
-4.1104658e-02
-3.1996266e-02
-3.8417398e-03
5.2015752e-02
1.4447912e-01
2.0656318e-01
1.5708318e-01
5.8443338e-02
-9.1831005e-03
-4.1424411e-02
-4.3524131e-02
-4.9979513e-02
-9.6840803e-02
-1.5483719e-01
-1.8922968e-01
-1.9894440e-01
-1.8877311e-01
-1.5521013e-01
-8.2714227e-02
4.0849116e-02
1.8486246e-01
2.5606206e-01
2.2611623e-01
1.8535722e-01
1.9818876e-01
2.1064181e-01
1.3067431e-01
-1.6224661e-02
-1.3325886e-01
-1.8307036e-01
-1.6841784e-01
-1.3059612e-01
-1.1663301e-01
-9.5169111e-02
-1.8533856e-02
7.7890615e-02
1.2994501e-01
1.2670121e-01
9.6725829e-02
8.8157861e-02
1.2897072e-01
1.6429337e-01
1.1787331e-01
2.0780867e-02
-5.6601784e-02
-1.0259840e-01
-1.3289015e-01
-1.5967729e-01
-1.7878268e-01
-1.8344915e-01
-1.7464067e-01
-1.6551503e-01
-1.6206437e-01
-1.4116509e-01
-8.1712673e-02
1.9736593e-02
1.1364255e-01
1.5391559e-01
2.0146913e-01
3.1860203e-01
4.2962818e-01
3.9235127e-01
2.1875060e-01
3.9107775e-02
-8.9306707e-02
-1.6916595e-01
-2.1304281e-01
-2.3673181e-01
-2.4294657e-01
-2.2971682e-01
-2.0244024e-01
-1.6358761e-01
-1.0906641e-01
-2.8052807e-02
9.2051522e-02
2.3204440e-01
2.9889537e-01
2.3877692e-01
1.3847726e-01
7.7300722e-02
3.5678761e-02
-2.2484409e-02
-8.7151709e-02
-1.3179967e-01
-1.4908997e-01
-1.4236551e-01
-1.1604775e-01
-9.8263776e-02
-1.1432424e-01
-1.3230607e-01
-1.2322143e-01
-1.0939009e-01
-9.9607913e-02
-4.8220565e-02
8.1665561e-02
2.5373850e-01
3.6699690e-01
3.5061845e-01
2.5918005e-01
2.0043208e-01
1.8769941e-01
1.4481001e-01
3.0082094e-02
-1.0527257e-01
-1.8879400e-01
-2.3163329e-01
-2.7636557e-01
-2.9910109e-01
-2.6816578e-01
-1.8079362e-01
-3.4864737e-02
1.0802202e-01
1.6949499e-01
1.9210097e-01
2.5085612e-01
3.2542954e-01
3.0738725e-01
1.6328913e-01
6.0361935e-04
-1.1406521e-01
-1.8484419e-01
-2.1936140e-01
-2.3024035e-01
-2.2359027e-01
-1.9933704e-01
-1.6477795e-01
-1.3404184e-01
-1.0128365e-01
-3.6720207e-02
7.8816369e-02
2.0371763e-01
2.3822749e-01
1.6163631e-01
7.1869010e-02
4.5108666e-02
8.9717898e-02
1.3764993e-01
9.6600630e-02
-2.2200465e-03
-6.8076164e-02
-7.5259749e-02
-6.8763422e-02
-1.0039095e-01
-1.3922130e-01
-1.3175164e-01
-7.1564717e-02
-1.9835152e-02
-3.2234734e-02
-5.0412077e-02
-8.7624527e-03
1.0441155e-01
2.2760746e-01
2.4669360e-01
1.7026190e-01
1.0301025e-01
9.0428426e-02
8.8775176e-02
3.2287536e-02
-6.6130225e-02
-1.4537674e-01
-1.8603058e-01
-2.0165590e-01
-2.0308826e-01
-1.8545632e-01
-1.4240193e-01
-8.9275240e-02
-5.4060152e-02
-3.3877766e-02
1.0902375e-02
1.1135391e-01
2.6717728e-01
3.9000871e-01
3.5279702e-01
1.8052971e-01
-1.1455667e-02
-1.7419424e-01
-2.9838360e-01
-3.8054572e-01
-4.1227233e-01
-3.7994538e-01
-2.7949096e-01
-1.4330567e-01
-4.6459096e-02
1.3223053e-02
1.3294294e-01
3.0202889e-01
4.0345405e-01
3.9219799e-01
3.5075017e-01
3.9883481e-01
5.0369181e-01
5.1729402e-01
3.6234177e-01
9.5971656e-02
-1.4730561e-01
-3.0236777e-01
-3.8285223e-01
-4.1140541e-01
-4.0594890e-01
-3.7450389e-01
-3.2196045e-01
-2.6146937e-01
-2.0738416e-01
-1.4899889e-01
-6.2557661e-02
6.3785994e-02
1.6596601e-01
1.8344385e-01
1.9747535e-01
2.8940034e-01
3.9799747e-01
3.7923205e-01
2.1008747e-01
1.5959541e-02
-1.2288583e-01
-2.0356499e-01
-2.4110691e-01
-2.4856857e-01
-2.2601580e-01
-1.6682126e-01
-7.3759780e-02
-4.1433432e-03
-3.2167872e-03
-1.2432944e-02
2.3724882e-02
9.8946215e-02
1.5793606e-01
1.5606929e-01
1.4222277e-01
1.7846490e-01
2.0621247e-01
1.3499204e-01
1.2471996e-02
-8.5006013e-02
-1.4787862e-01
-1.7995792e-01
-1.9477078e-01
-2.0716330e-01
-2.1333609e-01
-2.0243989e-01
-1.6625739e-01
-1.0294061e-01
-1.6866906e-02
9.7711050e-02
2.4577894e-01
3.8899599e-01
4.2435084e-01
3.0801011e-01
1.3651735e-01
-4.3990198e-04
-8.9551371e-02
-1.4471744e-01
-1.8055136e-01
-1.9591497e-01
-1.8812522e-01
-1.6616769e-01
-1.4378156e-01
-1.2269927e-01
-8.9557782e-02
-3.1257456e-02
4.7355648e-02
9.5000947e-02
7.3770605e-02
3.5799688e-02
4.3541908e-02
1.0786305e-01
1.5700880e-01
1.1089982e-01
2.7199862e-02
-9.3186796e-03
-1.1745289e-02
-4.3235987e-02
-1.1238585e-01
-1.5804543e-01
-1.4167625e-01
-5.9129728e-02
1.0821809e-02
-1.0821298e-02
-3.9164184e-02
1.7368982e-02
1.4913644e-01
2.5632411e-01
2.3518422e-01
1.4723729e-01
1.1021902e-01
1.4189115e-01
1.6131796e-01
9.3329777e-02
-2.2187594e-02
-1.1740531e-01
-1.8139764e-01
-2.3067609e-01
-2.7403551e-01
-3.0088594e-01
-3.0207332e-01
-2.7635939e-01
-2.2896071e-01
-1.5621714e-01
-3.3569385e-02
1.5736230e-01
3.6468435e-01
4.6526534e-01
3.8406015e-01
1.8894570e-01
2.2376219e-02
-6.1072616e-02
-1.0309936e-01
-1.2093486e-01
-8.2192143e-02
1.3643068e-02
1.1108551e-01
1.4220471e-01
8.4336413e-02
1.7443424e-03
-3.6410202e-02
-3.5471495e-02
-4.0661676e-02
-6.9509662e-02
-8.2201601e-02
-3.6174568e-02
6.6824898e-02
1.3621234e-01
9.5649621e-02
2.3030148e-02
-3.5379681e-03
1.7310539e-02
3.2077182e-02
-9.1983264e-03
-5.6920285e-02
-6.7715709e-02
-7.7465053e-02
-1.1964333e-01
-1.6719778e-01
-1.8909550e-01
-1.8130645e-01
-1.4101664e-01
-8.3045689e-02
-1.8290354e-02
7.7882293e-02
2.2827021e-01
3.7678638e-01
3.8643277e-01
2.3199089e-01
4.2138711e-02
-1.0103279e-01
-1.8916600e-01
-2.2896385e-01
-2.3079563e-01
-1.8716379e-01
-9.0013067e-02
4.0751454e-02
1.3119939e-01
1.2446956e-01
7.8207544e-02
7.1461896e-02
1.1297487e-01
1.5395736e-01
1.3164367e-01
5.9014865e-02
4.2881375e-04
-3.3166739e-02
-6.1742965e-02
-8.3869238e-02
-8.9932977e-02
-7.4418002e-02
-3.8723857e-02
-1.5210876e-03
1.7189987e-02
1.8397189e-02
2.6151840e-03
-3.2906305e-02
-8.8740283e-02
-1.6276169e-01
-2.3930772e-01
-3.0454053e-01
-3.4889677e-01
-3.5967871e-01
-3.2182833e-01
-2.1337296e-01
-2.1316673e-02
1.9839050e-01
3.2818069e-01
3.1269130e-01
2.4413810e-01
2.7553537e-01
4.0275129e-01
4.7945975e-01
4.4018726e-01
3.3787797e-01
2.5348740e-01
1.8844652e-01
7.3239288e-02
-7.4934004e-02
-1.6058573e-01
-1.5087017e-01
-1.1437367e-01
-1.2116369e-01
-1.5149628e-01
-1.6671670e-01
-1.6265682e-01
-1.4298810e-01
-1.1388709e-01
-8.1403966e-02
-4.9999399e-02
-2.2404786e-02
-1.9054489e-03
7.2171015e-03
5.8238174e-03
-4.1952956e-03
-2.3584487e-02
-5.4862032e-02
-1.0116102e-01
-1.6070122e-01
-2.2756677e-01
-2.9173208e-01
-3.4130310e-01
-3.6435096e-01
-3.4446530e-01
-2.6137814e-01
-9.2882445e-02
1.0707840e-01
2.0461996e-01
1.8777714e-01
2.0022133e-01
2.9362328e-01
3.7024673e-01
3.7462430e-01
3.1998092e-01
2.2364572e-01
9.9612567e-02
2.1418203e-02
6.1000652e-02
1.5482260e-01
2.4056344e-01
3.0907025e-01
3.3370355e-01
2.8993496e-01
1.6795632e-01
2.6284693e-02
-3.2702249e-02
-2.3942735e-02
-6.4032396e-02
-1.7104116e-01
-2.6690892e-01
-3.1962671e-01
-3.3997676e-01
-3.3868067e-01
-3.2454631e-01
-3.0102562e-01
-2.6913177e-01
-2.2580123e-01
-1.6219264e-01
-6.4785584e-02
7.8436298e-02
2.7046185e-01
4.5511938e-01
5.0569992e-01
3.9901890e-01
2.4681975e-01
1.0944872e-01
-1.1577190e-02
-1.0872613e-01
-1.7809298e-01
-2.1991170e-01
-2.4184258e-01
-2.5421362e-01
-2.5961809e-01
-2.5529345e-01
-2.3456268e-01
-1.8851421e-01
-1.2672463e-01
-7.7396680e-02
-3.2697160e-02
5.6104767e-02
2.0567019e-01
3.4062897e-01
3.5086453e-01
2.3164579e-01
7.1288621e-02
-4.7413241e-02
-7.4222559e-02
-2.9020934e-02
5.1514708e-02
2.0306556e-01
3.9641153e-01
4.8404417e-01
3.7881174e-01
1.5068653e-01
-6.4386450e-02
-2.1435068e-01
-3.1427615e-01
-3.7694751e-01
-4.1137864e-01
-4.2154808e-01
-4.0830238e-01
-3.6743156e-01
-2.8979071e-01
-1.6345835e-01
2.3271732e-02
2.6774497e-01
4.8663925e-01
5.4158796e-01
4.3319874e-01
3.0469937e-01
2.3920287e-01
1.6361390e-01
1.4104095e-02
-1.2341014e-01
-1.8082657e-01
-1.7212547e-01
-1.4966515e-01
-1.9909020e-01
-3.2437822e-01
-4.4418390e-01
-5.1058178e-01
-5.2625153e-01
-4.9579247e-01
-3.8918922e-01
-1.6094168e-01
1.4115529e-01
3.8911201e-01
5.3234076e-01
5.9644758e-01
6.1937348e-01
6.2328976e-01
5.8965907e-01
5.0046192e-01
3.8231359e-01
2.7127823e-01
1.4318387e-01
1.3027467e-02
-8.6145350e-02
-1.8481927e-01
-2.5087744e-01
-2.4832450e-01
-2.3078122e-01
-2.4348962e-01
-2.5506559e-01
-2.3735725e-01
-2.0167414e-01
-1.6915292e-01
-1.5710640e-01
-1.5151059e-01
-1.3622721e-01
-1.0994209e-01
-7.9589859e-02
-5.5198195e-02
-2.6643419e-02
2.7609625e-02
7.7635614e-02
6.2404738e-02
5.3753273e-03
-8.3725635e-03
6.4980808e-02
1.6390883e-01
1.4683839e-01
-2.0642432e-03
-1.4215255e-01
-1.7630702e-01
-1.0466141e-01
-1.1051458e-02
5.5281516e-02
1.8525608e-01
3.9748171e-01
5.5746469e-01
5.5280496e-01
3.7791532e-01
1.1955171e-01
-1.2284866e-01
-3.0601608e-01
-4.2878874e-01
-4.9863185e-01
-5.2212058e-01
-5.0140581e-01
-4.3209880e-01
-3.2751303e-01
-2.0186018e-01
-2.4947522e-02
1.8606096e-01
3.2075659e-01
3.7452326e-01
4.1709097e-01
4.6248917e-01
5.2156723e-01
5.2852607e-01
3.9682774e-01
1.3800050e-01
-1.4538640e-01
-3.5260030e-01
-4.7589226e-01
-5.3295032e-01
-5.1437911e-01
-4.0833305e-01
-2.1364281e-01
2.5012748e-02
1.9371609e-01
2.5289161e-01
3.0024310e-01
3.9374099e-01
4.5558219e-01
3.6391326e-01
1.3996346e-01
-6.5604157e-02
-1.7945048e-01
-2.3018752e-01
-2.6238285e-01
-2.7676765e-01
-2.4296824e-01
-1.5329095e-01
-7.0498350e-02
-6.1233641e-02
-7.2534493e-02
-2.5282084e-02
1.0104945e-01
2.5244880e-01
2.9723242e-01
2.1754721e-01
1.4278839e-01
1.2925511e-01
1.0163985e-01
5.1838489e-03
-1.0103187e-01
-1.5990627e-01
-1.6982369e-01
-1.4042118e-01
-1.1912885e-01
-1.4104144e-01
-1.6751075e-01
-1.6392409e-01
-1.3829086e-01
-9.2061877e-02
-6.2028451e-03
1.3594054e-01
3.0727792e-01
3.9903577e-01
3.3225001e-01
1.8451069e-01
6.6210796e-02
-1.2622880e-02
-9.5536904e-02
-1.9226508e-01
-2.7359063e-01
-3.2010425e-01
-3.3229733e-01
-3.1477722e-01
-2.6519524e-01
-1.7099644e-01
-1.6120163e-02
1.9244388e-01
3.7308323e-01
4.0367745e-01
3.0671884e-01
2.3859156e-01
2.3721676e-01
2.3256969e-01
1.5235576e-01
-1.7763335e-02
-1.7360218e-01
-2.4372269e-01
-2.4710542e-01
-2.0275239e-01
-1.0672381e-01
4.6458876e-02
1.9976582e-01
2.2991779e-01
1.1710259e-01
-2.3609037e-02
-1.2548758e-01
-1.9176285e-01
-2.3002075e-01
-2.4302858e-01
-2.2461039e-01
-1.6304904e-01
-5.0501967e-02
4.9552943e-02
7.0617505e-02
8.3247200e-02
1.7157375e-01
3.0295141e-01
3.7096734e-01
2.8817683e-01
9.0187581e-02
-9.2393559e-02
-1.9115810e-01
-2.1678917e-01
-1.8281838e-01
-8.9171460e-02
6.5525232e-02
2.1972838e-01
2.4179081e-01
1.1341528e-01
-4.0609888e-02
-1.4695371e-01
-2.0758891e-01
-2.3443096e-01
-2.3188216e-01
-1.9275720e-01
-1.1116568e-01
2.8748226e-03
7.1123113e-02
4.1454762e-02
2.5063215e-03
3.1957080e-02
1.2200347e-01
1.9983472e-01
1.9283225e-01
1.5639294e-01
1.8475569e-01
2.4624643e-01
2.0414431e-01
3.3716864e-02
-1.3939315e-01
-2.4351059e-01
-2.8713961e-01
-2.8952057e-01
-2.6023986e-01
-1.9000487e-01
-6.7135782e-02
4.6677255e-02
6.3326802e-02
3.3950056e-02
5.5819568e-02
1.5549763e-01
2.5445032e-01
2.2622675e-01
1.0782164e-01
2.9321587e-02
3.2384212e-02
7.7771617e-02
9.5742224e-02
7.3445380e-02
6.8469822e-02
1.1228497e-01
1.6069651e-01
1.2552975e-01
-1.2196944e-02
