-1.5542995e-01
-2.4300421e-01
-3.2538724e-01
-3.7573618e-01
-3.8168930e-01
-3.6185755e-01
-3.4474165e-01
-3.3127858e-01
-3.2127186e-01
-3.2474253e-01
-3.2897723e-01
-3.3511398e-01
-3.4538115e-01
-3.3690522e-01
-2.9902525e-01
-2.4493071e-01
-1.9058734e-01
-1.3237047e-01
-7.9471359e-02
-4.6959018e-02
-2.0275973e-02
3.7394252e-03
2.7921015e-02
7.3353792e-02
1.5037117e-01
2.3741261e-01
2.8720540e-01
2.8634391e-01
2.5476793e-01
2.1033879e-01
1.6351614e-01
1.0205857e-01
2.6268340e-02
-3.3001219e-02
-5.8567505e-02
-5.9403410e-02
-4.7061540e-02
-1.9968924e-02
5.7786949e-03
1.3673037e-02
1.0917668e-02
-1.5640762e-02
-6.6023318e-02
-1.0599990e-01
-1.1632714e-01
-9.9805716e-02
-6.2145571e-02
-1.5234370e-02
8.0377741e-03
-6.9494415e-04
-1.9291191e-02
-5.1026573e-02
-9.2728199e-02
-1.1624780e-01
-1.0883119e-01
-7.8031613e-02
-3.2477820e-02
1.7040587e-02
4.0020763e-02
3.0908191e-02
1.9510806e-02
1.3649119e-02
1.7939563e-02
5.0544136e-02
1.1701269e-01
1.9487001e-01
2.5928406e-01
3.0575841e-01
3.1523943e-01
2.8199268e-01
2.2583187e-01
1.4785280e-01
5.8444070e-02
-1.3775020e-02
-5.7489185e-02
-7.9966050e-02
-8.8057174e-02
-8.2629872e-02
-7.4395131e-02
-7.4093586e-02
-7.7701340e-02
-8.9174564e-02
-1.1126089e-01
-1.2738786e-01
-1.2601466e-01
-1.1873208e-01
-1.1823333e-01
-1.1455649e-01
-1.0019661e-01
-7.7396616e-02
-5.4624335e-02
-5.1027101e-02
-6.4713351e-02
-7.3804354e-02
-6.6827923e-02
-5.5760006e-02
-5.3803743e-02
-5.4151979e-02
-5.4306261e-02
-5.1417437e-02
-3.9465868e-02
-2.3257936e-02
-1.0881052e-03
3.5245812e-02
8.8181977e-02
1.4247269e-01
1.8361243e-01
2.1595232e-01
2.3679013e-01
2.4615519e-01
2.4168965e-01
2.0413878e-01
1.3862925e-01
7.3267836e-02
2.1682384e-02
-1.9337587e-02
-5.4420219e-02
-8.1708441e-02
-9.9124175e-02
-1.0859636e-01
-1.1418821e-01
-1.1587679e-01
-1.0908514e-01
-9.1459985e-02
-6.3616911e-02
-4.4325055e-02
-4.9346381e-02
-6.3460339e-02
-7.5392747e-02
-8.2807012e-02
-8.2939572e-02
-7.7258597e-02
-6.4572282e-02
-4.5152961e-02
-2.2321001e-02
-1.2742153e-02
-2.7861644e-02
-5.0097262e-02
-6.3622039e-02
-7.1513283e-02
-8.0608441e-02
-8.4360017e-02
-7.4095734e-02
-5.1788471e-02
-1.9684056e-02
9.4161639e-03
2.4811582e-02
3.6680093e-02
5.4167824e-02
7.4689650e-02
8.9467293e-02
9.9688999e-02
1.1178922e-01
1.2080666e-01
1.2392388e-01
1.1762202e-01
1.0032534e-01
8.4968514e-02
8.0338725e-02
7.9722735e-02
7.4619151e-02
7.2664213e-02
8.3248124e-02
1.0210072e-01
1.1710242e-01
1.0498124e-01
6.1112215e-02
7.9114732e-03
-4.3731112e-02
-9.0227181e-02
-1.2850992e-01
-1.5830588e-01
-1.7723709e-01
-1.8558943e-01
-1.8525996e-01
-1.8232029e-01
-1.8041510e-01
-1.7540318e-01
-1.6499458e-01
-1.4610068e-01
-1.1693227e-01
-7.9219088e-02
-3.1368363e-02
2.5368035e-02
8.1649821e-02
1.1831167e-01
1.3014576e-01
1.3079108e-01
1.2720993e-01
1.2416781e-01
1.1912471e-01
1.1030244e-01
1.0151480e-01
8.8020505e-02
6.6846704e-02
3.7162735e-02
4.2157522e-03
-2.0704295e-02
-3.2499381e-02
-3.3290440e-02
-2.9079727e-02
-1.9459337e-02
-2.6059650e-03
1.6595627e-02
2.8967391e-02
2.8483462e-02
2.5307402e-02
2.3547218e-02
1.6658376e-02
8.2726774e-03
1.4133246e-03
7.4668680e-04
9.8373498e-03
2.5240082e-02
4.3844684e-02
5.8647591e-02
6.3523429e-02
5.4392322e-02
3.4484344e-02
1.6138302e-02
2.3350955e-03
-8.2657302e-03
-1.6516927e-02
-2.6656793e-02
-4.0407667e-02
-5.9487672e-02
-8.0260584e-02
-9.6029908e-02
-1.0527615e-01
-1.0634945e-01
-9.8936034e-02
-8.4047177e-02
-6.3953862e-02
-4.3010089e-02
-2.5194640e-02
-1.2956926e-02
-3.9375148e-03
-1.5024613e-04
-3.7047232e-03
-6.7408498e-03
-6.3997178e-03
-3.4061482e-03
2.0513959e-03
3.0567998e-03
-1.1146585e-02
-4.1345530e-02
-7.2428136e-02
-9.4724663e-02
-1.0773966e-01
-1.0827794e-01
-9.4570159e-02
-6.7124710e-02
-3.2184296e-02
-2.3649614e-03
1.1264480e-02
1.0756865e-02
1.4194793e-02
3.0964508e-02
5.9619578e-02
1.0044428e-01
1.5018967e-01
2.0838982e-01
2.6942742e-01
3.0838463e-01
2.9639694e-01
2.3821563e-01
1.7257413e-01
1.1501917e-01
5.9799558e-02
1.1959311e-02
-2.4360557e-02
-4.6054446e-02
-5.3241892e-02
-5.4554785e-02
-6.4565883e-02
-8.9796620e-02
-1.1573649e-01
-1.3156567e-01
-1.3804036e-01
-1.3689786e-01
-1.2966505e-01
-1.1391478e-01
-9.1396140e-02
-6.8020042e-02
-5.4664367e-02
-5.7439000e-02
-6.7439007e-02
-8.0986397e-02
-9.3222018e-02
-9.6458779e-02
-9.1602552e-02
-7.8500385e-02
-6.0174937e-02
-4.1382363e-02
-2.3086244e-02
-3.6982640e-03
1.9931982e-02
4.7051083e-02
8.0561623e-02
1.0887924e-01
1.1802632e-01
1.2738790e-01
1.4695198e-01
1.5824267e-01
1.3878277e-01
9.0548161e-02
3.7717750e-02
-9.0949811e-03
-4.0826551e-02
-5.3077335e-02
-5.2224083e-02
-3.6032300e-02
-7.9544230e-03
1.8725149e-02
2.8333736e-02
1.9216371e-02
7.2382433e-03
-4.0121246e-04
2.6081575e-03
1.7018251e-02
3.4688748e-02
5.8116454e-02
8.2924383e-02
8.9378129e-02
6.4128465e-02
1.9113821e-02
-1.8642999e-02
-3.9050091e-02
-5.2219624e-02
-7.1948977e-02
-9.8152833e-02
-1.1648714e-01
-1.2310862e-01
-1.2551990e-01
-1.3561835e-01
-1.5684716e-01
-1.7494144e-01
-1.7985195e-01
-1.6748486e-01
-1.3836363e-01
-9.6116609e-02
-4.0299133e-02
2.2672270e-02
7.7406357e-02
1.0111134e-01
9.4004138e-02
8.3850821e-02
8.3727851e-02
9.5427513e-02
1.0603638e-01
1.0726855e-01
1.2018555e-01
1.5455756e-01
1.9847291e-01
2.2965119e-01
2.4145806e-01
2.4394476e-01
2.3857335e-01
2.1848277e-01
1.5474927e-01
4.7391962e-02
-5.8231871e-02
-1.4004282e-01
-1.9986591e-01
-2.3726262e-01
-2.4800708e-01
-2.3488222e-01
-2.0460535e-01
-1.6041629e-01
-1.2028500e-01
-9.3963717e-02
-6.0485897e-02
-1.1564327e-02
3.3861208e-02
5.1934155e-02
4.3711189e-02
2.4851153e-02
4.0117431e-04
-1.6512047e-02
-1.7887843e-02
-3.4929762e-03
3.2011587e-02
8.4796215e-02
1.4213222e-01
1.8158073e-01
1.9642528e-01
1.9501528e-01
1.7581725e-01
1.4175345e-01
9.1644462e-02
3.6048330e-02
-4.7055007e-03
-2.7861533e-02
-3.6006587e-02
-3.3488328e-02
-2.0808149e-02
-1.1290127e-02
-2.5129148e-02
-6.1525060e-02
-1.1642449e-01
-1.7323316e-01
-2.1195176e-01
-2.3233039e-01
-2.3702570e-01
-2.2935871e-01
-2.1317309e-01
-2.0635342e-01
-2.2729791e-01
-2.7407501e-01
-3.3942865e-01
-3.9862656e-01
-4.2862737e-01
-4.2651044e-01
-3.9218244e-01
-3.2473019e-01
-2.2172354e-01
-1.0051534e-01
1.8832720e-02
1.3351765e-01
2.3990408e-01
3.3979736e-01
4.2476485e-01
4.8036713e-01
5.0484839e-01
5.1076401e-01
5.1469033e-01
5.0727752e-01
4.7798545e-01
4.3312049e-01
3.8409902e-01
3.3802734e-01
2.7836738e-01
1.8894063e-01
8.2181833e-02
-1.1859178e-02
-7.2208196e-02
-1.1611563e-01
-1.6402681e-01
-2.1666897e-01
-2.8262983e-01
-3.5402653e-01
-4.1609395e-01
-4.5998654e-01
-4.6172781e-01
-4.0973720e-01
-3.1842783e-01
-2.1665306e-01
-1.2109442e-01
-3.2568341e-02
4.4858550e-02
1.1110264e-01
1.5865021e-01
1.8114904e-01
1.8849403e-01
1.9954367e-01
2.2582560e-01
2.5348659e-01
2.6673502e-01
2.6229418e-01
2.5675574e-01
2.6684851e-01
2.7397023e-01
2.5917429e-01
2.2239749e-01
1.8054666e-01
1.5376053e-01
1.3235643e-01
1.0918769e-01
8.7885055e-02
7.0698216e-02
6.4877011e-02
5.5057916e-02
2.4223109e-02
-1.4503675e-02
-3.7720420e-02
-4.8434656e-02
-7.8882757e-02
-1.3652812e-01
-2.0120540e-01
-2.5701638e-01
-2.9412780e-01
-3.1439045e-01
-3.1547722e-01
-2.8415816e-01
-2.1517954e-01
-1.2526205e-01
-4.5908036e-02
1.2085737e-02
4.3866184e-02
5.1451923e-02
5.1487496e-02
2.9441021e-02
-1.6342479e-02
-4.8985755e-02
-4.8247858e-02
-1.9438331e-02
2.5769034e-02
7.4764739e-02
1.0206018e-01
1.0342761e-01
9.7122726e-02
7.1009046e-02
2.5559736e-02
-3.9090107e-03
1.4890229e-03
3.2612898e-02
7.4239001e-02
1.1735110e-01
1.3908012e-01
1.3089237e-01
1.0877965e-01
6.2197785e-02
-8.0207051e-03
-6.6234184e-02
-9.3326252e-02
-9.2726906e-02
-6.9136689e-02
-2.8942347e-02
-9.2213235e-04
-1.0803744e-02
-4.4660070e-02
-8.7192657e-02
-1.3096685e-01
-1.5662553e-01
-1.5380996e-01
-1.3786857e-01
-1.2606844e-01
-1.1031579e-01
-9.1561895e-02
-7.7595025e-02
-6.7349866e-02
-7.6656832e-02
-1.0229848e-01
-1.1444893e-01
-9.9264614e-02
-7.1679373e-02
-4.7707032e-02
-1.3594085e-02
3.2647827e-02
8.1703865e-02
1.2809109e-01
1.3978504e-01
1.1546209e-01
9.8701107e-02
1.1143854e-01
1.4591414e-01
1.9425185e-01
2.4674269e-01
2.7111480e-01
2.5965705e-01
2.2907831e-01
1.6814798e-01
8.2757921e-02
9.7794767e-03
-3.2513956e-02
-5.4005641e-02
-6.5715417e-02
-6.3065013e-02
-5.2635288e-02
-4.3870889e-02
-3.6262018e-02
-4.4002472e-02
-6.9419164e-02
-8.9483438e-02
-9.0714744e-02
-8.5710955e-02
-8.9135325e-02
-9.4613087e-02
-9.9993943e-02
-1.0605616e-01
-1.1099467e-01
-1.2378993e-01
-1.4159140e-01
-1.4967023e-01
-1.4127032e-01
-1.2458899e-01
-1.0876908e-01
-8.5353977e-02
-4.5637192e-02
1.0902011e-02
7.1981253e-02
1.1041615e-01
1.2316980e-01
1.3476336e-01
1.6121607e-01
1.9022774e-01
2.0621807e-01
2.0987866e-01
1.9982364e-01
1.8990436e-01
1.8351665e-01
1.5546499e-01
1.0636286e-01
5.6999797e-02
1.6156411e-02
-2.4720147e-02
-7.4129798e-02
-1.1930951e-01
-1.4902042e-01
-1.6240736e-01
-1.6473065e-01
-1.6551580e-01
-1.6274891e-01
-1.5068108e-01
-1.2918937e-01
-1.0562548e-01
-8.6142088e-02
-6.8296775e-02
-5.0028302e-02
-3.7372573e-02
-4.0183473e-02
-5.0447134e-02
-5.3359517e-02
-4.7730355e-02
-3.4965083e-02
-2.2623611e-02
-1.7779865e-02
-1.1652981e-02
4.0229057e-03
2.4408197e-02
4.1969934e-02
6.3483067e-02
9.9865318e-02
1.4912720e-01
1.9411080e-01
2.0119897e-01
1.6429038e-01
1.1328136e-01
6.4301415e-02
2.4310845e-02
-4.5380502e-03
-2.4421782e-02
-2.9707767e-02
-1.8057843e-02
6.8528227e-03
2.4335132e-02
1.8128905e-02
1.8009092e-03
-1.2206381e-02
-2.2319230e-02
-3.3229956e-02
-4.6042739e-02
-5.2483865e-02
-4.7090998e-02
-3.0632490e-02
-2.2433962e-02
-3.6803453e-02
-5.8725072e-02
-7.5829392e-02
-8.6608387e-02
-9.1100590e-02
-8.8621219e-02
-7.6514184e-02
-5.5788576e-02
-2.9585549e-02
-8.7342375e-03
8.6656825e-04
6.0745453e-03
1.0598271e-02
1.7114674e-02
2.7506499e-02
4.6260330e-02
7.6988922e-02
1.1576655e-01
1.5495383e-01
1.7329470e-01
1.6210603e-01
1.3364062e-01
9.3605196e-02
5.3796358e-02
2.2822239e-02
1.3727710e-03
-8.4153180e-03
-1.0078691e-02
-8.6056730e-03
-1.4914231e-02
-3.2791898e-02
-5.3869053e-02
-7.4322193e-02
-9.4303793e-02
-1.1440422e-01
-1.2844471e-01
-1.3089013e-01
-1.2440091e-01
-1.1260139e-01
-1.0262730e-01
-9.7249159e-02
-9.2733835e-02
-8.6987968e-02
-7.6224990e-02
-5.9682996e-02
-3.7713710e-02
-8.6691561e-03
2.4964053e-02
5.1287110e-02
5.6150586e-02
4.7906956e-02
3.9714526e-02
3.2128789e-02
3.0721155e-02
3.8575459e-02
5.5348865e-02
8.3222886e-02
1.1780171e-01
1.4394670e-01
1.4503844e-01
1.2702996e-01
1.0186964e-01
7.0648227e-02
4.5264732e-02
3.0919699e-02
2.3141674e-02
2.3848166e-02
3.1478431e-02
3.7227720e-02
2.8436077e-02
7.5966380e-03
-1.4828282e-02
-3.6656883e-02
-5.3831275e-02
-6.5272173e-02
-7.0692622e-02
-6.8539717e-02
-6.1203009e-02
-5.7769036e-02
-6.8371252e-02
-8.5248466e-02
-9.6183862e-02
-9.7930750e-02
-9.0976835e-02
-7.9714111e-02
-6.4664316e-02
-4.6645208e-02
-3.1529093e-02
-2.8872158e-02
-4.3448470e-02
-6.5395235e-02
-8.4570682e-02
-9.3420980e-02
-8.8166075e-02
-7.1997996e-02
-4.5511597e-02
-1.0597574e-02
2.8811971e-02
7.0571213e-02
1.1485692e-01
1.5993338e-01
1.9217341e-01
2.1122748e-01
2.2849652e-01
2.4062987e-01
2.5190218e-01
2.6372204e-01
2.5984099e-01
2.2742796e-01
1.7201593e-01
1.0692505e-01
2.9311291e-02
-5.4908821e-02
-1.2776984e-01
-1.8689174e-01
-2.3505666e-01
-2.7539642e-01
-3.1256676e-01
-3.4748102e-01
-3.7845626e-01
-4.0286411e-01
-4.1873027e-01
-4.1925733e-01
-3.9687752e-01
-3.5105161e-01
-2.8288253e-01
-1.9274393e-01
-8.0942131e-02
4.7929096e-02
1.8417547e-01
3.1797923e-01
4.3109956e-01
5.0379213e-01
5.2996327e-01
5.2380129e-01
5.1641439e-01
5.1001393e-01
4.7232547e-01
3.8209138e-01
2.5727644e-01
1.3847446e-01
4.5234376e-02
-1.7985670e-02
-5.3934781e-02
-7.4760071e-02
-8.2658940e-02
-7.8813114e-02
-6.9850770e-02
-6.3651686e-02
-6.5001106e-02
-6.3846993e-02
-5.4120521e-02
-3.9592120e-02
-3.4534848e-02
-4.8856869e-02
-6.3891617e-02
-6.6741252e-02
-6.2270906e-02
-6.2144416e-02
-7.3501267e-02
-8.9588730e-02
-1.0601841e-01
-1.1945963e-01
-1.2811886e-01
-1.3365669e-01
-1.3445450e-01
-1.2961031e-01
-1.1962793e-01
-1.0671595e-01
-9.3331586e-02
-8.1359339e-02
-7.2983469e-02
-6.7716699e-02
-6.4614929e-02
-6.2037818e-02
-5.6462979e-02
-4.6931107e-02
-3.4415307e-02
-2.9574565e-02
-4.0331952e-02
-5.0968474e-02
-5.0046470e-02
-4.3874985e-02
-4.0466754e-02
-3.8427357e-02
-2.7333104e-02
-4.1014151e-03
2.8390196e-02
6.3221923e-02
9.4499015e-02
1.1372213e-01
1.0870537e-01
9.1799523e-02
7.8781985e-02
7.2980726e-02
8.0268752e-02
9.9218686e-02
1.2129576e-01
1.3826220e-01
1.5154462e-01
1.6501179e-01
1.7272096e-01
1.7326306e-01
1.6112986e-01
1.3436527e-01
1.1063031e-01
9.5723294e-02
7.7660328e-02
4.5037866e-02
1.1716185e-03
-3.8411826e-02
-6.7907918e-02
-9.3061227e-02
-1.2084859e-01
-1.4783813e-01
-1.6532874e-01
-1.7256643e-01
-1.7344214e-01
-1.7313800e-01
-1.7174422e-01
-1.6489102e-01
-1.5193681e-01
-1.3486919e-01
-1.1589065e-01
-9.2606782e-02
-5.9591964e-02
-1.7522465e-02
2.3796094e-02
3.8604789e-02
1.4428011e-02
-2.1709700e-02
-4.8086758e-02
-6.4139215e-02
-7.5478449e-02
-8.6181724e-02
-8.7618955e-02
-7.3073020e-02
-4.4752171e-02
-1.2720584e-02
1.7078246e-02
4.8835882e-02
8.2477233e-02
1.1157878e-01
1.1701003e-01
9.8389821e-02
8.6842503e-02
9.5313404e-02
1.1513255e-01
1.3451648e-01
1.5162626e-01
1.6807788e-01
1.7929108e-01
1.7844906e-01
1.3712527e-01
5.4287909e-02
-2.5594217e-02
-8.1518097e-02
-1.1811552e-01
-1.3960586e-01
-1.4360034e-01
-1.3262771e-01
-1.1630523e-01
-1.0180228e-01
-9.5969038e-02
-8.6908496e-02
-5.6002123e-02
-4.4738731e-03
5.5283971e-02
1.0060518e-01
1.2487546e-01
1.3518306e-01
1.2798998e-01
1.1582419e-01
1.1462623e-01
1.3241998e-01
1.7119782e-01
2.2490395e-01
2.7921987e-01
3.0378681e-01
2.8964044e-01
2.4278397e-01
1.6348179e-01
6.8372313e-02
-2.5870529e-02
-1.0765686e-01
-1.7148140e-01
-2.2071967e-01
-2.5382204e-01
-2.7025438e-01
-2.7128790e-01
-2.6262449e-01
-2.5158397e-01
-2.4828309e-01
-2.6207791e-01
-2.7994366e-01
-2.8677064e-01
-2.8151988e-01
-2.6486335e-01
-2.3763744e-01
-1.9828796e-01
-1.4737995e-01
-8.6279811e-02
-2.2975221e-02
3.1733838e-02
9.1735365e-02
1.6915939e-01
2.5286534e-01
3.3313526e-01
4.0071570e-01
4.4434834e-01
4.5055000e-01
4.1864427e-01
3.5965409e-01
2.7325408e-01
1.7729917e-01
9.3111792e-02
2.4474810e-02
-2.3016026e-02
-4.9140687e-02
-5.7884671e-02
-5.4064543e-02
-4.1137364e-02
-3.5019784e-02
-5.2674315e-02
-8.0951828e-02
-1.0566051e-01
-1.2276870e-01
-1.2890301e-01
-1.3004725e-01
-1.3466783e-01
-1.4816269e-01
-1.6683442e-01
-1.8439623e-01
-1.9993030e-01
-2.1072914e-01
-2.1866614e-01
-2.2163567e-01
-2.0897871e-01
-1.7699414e-01
-1.3078856e-01
-8.5906802e-02
-5.0113488e-02
-2.6954262e-02
-2.0812150e-02
-1.3577647e-02
3.2678081e-03
2.8405773e-02
7.3034546e-02
1.3714170e-01
2.0138504e-01
2.3363164e-01
2.3131711e-01
2.1308432e-01
1.8312116e-01
1.5088782e-01
1.1275596e-01
7.0538677e-02
4.9503512e-02
6.1375809e-02
1.0140746e-01
1.4159000e-01
1.5880227e-01
1.5211845e-01
1.2281876e-01
8.1430556e-02
1.9542891e-02
-6.2851772e-02
-1.2954635e-01
-1.6248726e-01
-1.6621631e-01
-1.5654697e-01
-1.4733292e-01
-1.4808307e-01
-1.6423708e-01
-1.8330958e-01
-2.0334588e-01
-2.1841566e-01
-2.0619441e-01
-1.5830361e-01
-8.5166514e-02
-1.5241047e-02
4.0699972e-02
8.6894418e-02
1.2159408e-01
1.5426576e-01
1.7011953e-01
1.5989666e-01
1.5626103e-01
1.7725777e-01
2.0975150e-01
2.2501606e-01
2.1712941e-01
1.9365154e-01
1.5225958e-01
1.0198379e-01
4.0219705e-02
-2.7421311e-02
-7.2321543e-02
-8.2886410e-02
-6.5332376e-02
-3.5560650e-02
-2.2165869e-03
2.3931092e-02
3.3756762e-02
3.6000930e-02
1.3971922e-02
-3.7015878e-02
-7.8391143e-02
-8.8835385e-02
-8.1537386e-02
-7.3389711e-02
-6.0309004e-02
-5.1870764e-02
-6.2543670e-02
-8.1826066e-02
-1.1480598e-01
-1.5988967e-01
-1.8901548e-01
-1.8770210e-01
-1.6415086e-01
-1.3408801e-01
-9.5325372e-02
-5.2753283e-02
-2.0779452e-02
8.6353185e-03
3.3361202e-02
5.5584346e-02
9.8960401e-02
1.7154788e-01
2.4839372e-01
2.8859049e-01
2.8616042e-01
2.5946902e-01
2.2396201e-01
1.9021995e-01
1.3947123e-01
6.8423874e-02
1.2758572e-02
-8.8537250e-03
-5.1313006e-03
7.8096574e-03
2.3804532e-02
2.9050569e-02
1.0084629e-02
-1.9216573e-02
-6.1411208e-02
-1.1806974e-01
-1.6077104e-01
-1.7391978e-01
-1.6772416e-01
-1.5381869e-01
-1.2700122e-01
-9.8889160e-02
-8.7284408e-02
-8.4939261e-02
-9.9460309e-02
-1.3205297e-01
-1.5553785e-01
-1.5487517e-01
-1.3944631e-01
-1.2073902e-01
-9.2071269e-02
-6.3541522e-02
-4.9562670e-02
-3.8188673e-02
-3.4135833e-02
-3.7506972e-02
-2.3328198e-02
2.1019129e-02
8.7582353e-02
1.6349355e-01
2.3735966e-01
2.8301475e-01
2.9528585e-01
2.9213232e-01
2.5868149e-01
1.9167649e-01
1.2677948e-01
8.9633344e-02
6.6629843e-02
3.3140110e-02
1.6468958e-03
-1.1151229e-02
-5.8379167e-03
5.9167515e-03
-6.3829248e-03
-4.3182849e-02
-6.9076272e-02
-6.5524432e-02
-4.1697012e-02
-7.9039143e-03
3.4730989e-02
6.1846441e-02
5.8049812e-02
3.7189539e-02
-1.3180234e-02
-9.3973105e-02
-1.6778528e-01
-2.1456932e-01
-2.3692601e-01
-2.3744365e-01
-2.1582340e-01
-1.8540995e-01
-1.5877510e-01
-1.3533928e-01
-1.3107010e-01
-1.4516266e-01
-1.4501353e-01
-1.1457616e-01
-5.9661845e-02
1.4306275e-02
1.0376171e-01
1.8291240e-01
2.3276363e-01
2.6053023e-01
2.5231626e-01
2.0742562e-01
1.6391554e-01
1.4557151e-01
1.3764004e-01
1.2115795e-01
1.0530378e-01
7.9121032e-02
2.5923821e-02
-3.3549738e-02
-8.0804768e-02
-1.0482144e-01
-9.4832329e-02
-5.0265146e-02
4.6487020e-03
4.3161972e-02
7.0297784e-02
8.6772466e-02
9.3279262e-02
9.1372084e-02
5.8731777e-02
9.9179517e-04
-4.4092717e-02
-5.8796763e-02
-5.5727028e-02
-4.9096553e-02
-3.1606326e-02
-1.3333941e-02
-1.1948667e-02
-2.3391552e-02
-5.9684131e-02
-1.1954116e-01
-1.7163388e-01
-2.0129107e-01
-2.1216164e-01
-2.0735931e-01
-1.8357328e-01
-1.4107253e-01
-8.2583554e-02
-1.9514137e-02
1.6267280e-02
2.0548793e-02
2.8184189e-02
6.0487163e-02
1.0547374e-01
1.4883072e-01
1.8820678e-01
2.0078842e-01
1.8112861e-01
1.5555476e-01
1.2253312e-01
8.0003451e-02
5.3009509e-02
5.5520996e-02
7.6223697e-02
1.0542826e-01
1.4559826e-01
1.7947894e-01
1.8682263e-01
1.6370134e-01
1.0737850e-01
3.7753604e-02
-1.5689868e-02
-4.4594115e-02
-6.1359908e-02
-7.7354969e-02
-8.7453576e-02
-9.1722523e-02
-9.7092913e-02
-1.1185838e-01
-1.4244464e-01
-1.7968389e-01
-2.0844139e-01
-2.2334065e-01
-2.2843095e-01
-2.2605163e-01
-2.1163525e-01
-1.8152440e-01
-1.3472020e-01
-7.8414775e-02
-2.8446383e-02
1.3495653e-02
5.6069477e-02
1.0049585e-01
1.2807051e-01
1.2516446e-01
1.1902316e-01
1.3174196e-01
1.5963101e-01
1.8701378e-01
1.9325349e-01
1.8465380e-01
1.8104174e-01
1.8814082e-01
1.8756956e-01
1.6167731e-01
1.2062362e-01
7.0254730e-02
1.4556409e-02
-3.9560175e-02
-9.3756825e-02
-1.4193364e-01
-1.7560676e-01
-1.9442050e-01
-2.1207973e-01
-2.4051566e-01
-2.6896232e-01
-2.8743065e-01
-2.9846369e-01
-3.0443132e-01
-3.0045464e-01
-2.8000526e-01
-2.4308271e-01
-1.9062377e-01
-1.2567326e-01
-5.0232356e-02
3.8726021e-02
1.4223528e-01
2.6297139e-01
3.8350277e-01
4.5982249e-01
4.7499398e-01
4.5157367e-01
4.1766930e-01
3.7037409e-01
2.9903023e-01
2.2128574e-01
1.4888911e-01
8.7943751e-02
4.2419228e-02
3.8648790e-03
-3.0418877e-02
-5.7007019e-02
-7.3144346e-02
-8.7284059e-02
-1.0965991e-01
-1.3100257e-01
-1.4173472e-01
-1.4048538e-01
-1.2932794e-01
-1.1417037e-01
-9.3949910e-02
-6.9287527e-02
-4.6815971e-02
-3.5582356e-02
-3.9867676e-02
-5.1435300e-02
-6.4174241e-02
-7.6061273e-02
-8.6026660e-02
-9.2071077e-02
-8.9146143e-02
-7.6887149e-02
-5.6940394e-02
-4.2515980e-02
-4.7196234e-02
-6.0859077e-02
-7.2231853e-02
-7.7746352e-02
-8.0492712e-02
-8.4515743e-02
-8.3879170e-02
-7.6179954e-02
-6.2474659e-02
-4.9834702e-02
-4.3003033e-02
-2.9513331e-02
-1.5302884e-04
3.5001518e-02
5.8434228e-02
7.0685184e-02
8.8566509e-02
1.2055369e-01
1.5652052e-01
1.6569760e-01
1.3861774e-01
1.0742954e-01
9.3602897e-02
9.2410663e-02
8.7440092e-02
7.1229812e-02
5.5029171e-02
4.8279849e-02
4.4089115e-02
2.2363036e-02
-1.7291471e-02
-5.1318125e-02
-6.8331667e-02
-6.9746706e-02
-6.0572773e-02
-4.9738913e-02
-3.8881089e-02
-2.5229621e-02
-1.0107137e-02
2.7992669e-03
1.3407010e-02
2.5153750e-02
4.0625071e-02
6.1256533e-02
8.3754782e-02
1.0354113e-01
1.1866253e-01
1.2621692e-01
1.2038109e-01
9.7185906e-02
6.4381196e-02
3.1421343e-02
-2.9380342e-04
-2.7523359e-02
-4.9089323e-02
-6.7925038e-02
-8.1805386e-02
-8.6901833e-02
-8.2037042e-02
-7.1771778e-02
-6.0355024e-02
-4.5567657e-02
-2.7667301e-02
-1.0655294e-02
-6.1859923e-03
-2.0155728e-02
-3.8412725e-02
-5.2302436e-02
-6.4260086e-02
-7.3942073e-02
-7.9945412e-02
-8.2964248e-02
-8.3623586e-02
-8.2184140e-02
-8.2634669e-02
-8.3515425e-02
-7.7678977e-02
-6.6530978e-02
-5.5999850e-02
-4.7041747e-02
-3.6183924e-02
-2.0589236e-02
6.3162311e-04
2.1984452e-02
3.1278884e-02
2.8613548e-02
2.6369176e-02
3.0056849e-02
4.0077318e-02
4.4237553e-02
3.1302333e-02
1.5268707e-02
7.6069027e-03
1.0355335e-02
2.6015947e-02
5.6302698e-02
9.8377240e-02
1.4205881e-01
1.7330754e-01
1.7135780e-01
1.3771195e-01
9.3650841e-02
4.7426884e-02
5.8662413e-03
-2.6044474e-02
-4.7954100e-02
-5.8588099e-02
-5.8748420e-02
-4.9834641e-02
-4.0479172e-02
-3.6956388e-02
-3.2434118e-02
-2.3694750e-02
-1.8467230e-02
-2.2198122e-02
-2.7210031e-02
-2.5574856e-02
-1.8134381e-02
-6.8205206e-03
9.3415793e-04
9.2324022e-04
1.0994850e-03
6.5986434e-03
1.1345283e-02
2.1280781e-03
-2.0452865e-02
-4.0279586e-02
-5.0272927e-02
-5.2297480e-02
-5.0174663e-02
-4.5404597e-02
-3.7293338e-02
-2.7513504e-02
-1.2929507e-02
9.1658565e-03
3.8187210e-02
7.2901795e-02
1.0779375e-01
1.3412498e-01
1.3504311e-01
1.0809141e-01
7.3059057e-02
4.0143328e-02
1.1616283e-02
-1.0212906e-02
-2.4078838e-02
-3.0413426e-02
-3.4903523e-02
-4.1198571e-02
-5.3230710e-02
-7.3222157e-02
-9.6052281e-02
-1.1760978e-01
-1.3672393e-01
-1.5232337e-01
-1.5878960e-01
-1.5318185e-01
-1.3904629e-01
-1.1703786e-01
-9.1533057e-02
-6.6477669e-02
-3.6702808e-02
2.6564482e-03
4.9241622e-02
9.7721382e-02
1.5236073e-01
2.1365220e-01
2.6059672e-01
2.7283254e-01
2.4581389e-01
1.9477896e-01
1.4312368e-01
9.9512840e-02
6.4950104e-02
3.8999295e-02
2.3769937e-02
2.2059786e-02
2.9932032e-02
3.8120028e-02
3.1911507e-02
8.8813146e-03
-1.8913956e-02
-4.3860540e-02
-6.1225793e-02
-7.0446078e-02
-7.1035468e-02
-6.0236698e-02
-3.9693527e-02
-2.1887403e-02
-2.1713623e-02
-3.0548113e-02
-3.5694481e-02
-3.7227149e-02
-3.6662050e-02
-3.5766180e-02
-3.1642342e-02
-2.1276500e-02
-8.5584252e-03
-8.9136512e-03
-3.2622785e-02
-6.3280328e-02
-8.5298540e-02
-9.9002164e-02
-1.0745083e-01
-1.1322508e-01
-1.1523365e-01
-1.1104908e-01
-1.0121652e-01
-8.8028961e-02
-7.3368306e-02
-5.5882257e-02
-3.1883871e-02
1.1363574e-03
3.6190074e-02
6.1711042e-02
8.4348853e-02
1.1314002e-01
1.3880680e-01
1.4713244e-01
1.3098597e-01
9.9504899e-02
6.7910639e-02
4.2201506e-02
2.3937793e-02
1.5196143e-02
1.7485299e-02
2.8399931e-02
4.2808082e-02
5.2347700e-02
5.0515129e-02
4.4891410e-02
3.7620449e-02
2.2138430e-02
7.4282474e-03
3.7413546e-04
-2.3778799e-03
-2.3536044e-03
-5.3774440e-03
-1.9473170e-02
-4.4210987e-02
-6.9670371e-02
-8.8517768e-02
-9.9285877e-02
-9.9363415e-02
-8.9842837e-02
-7.5234558e-02
-5.7129580e-02
-3.6383540e-02
-1.5164718e-02
4.2754115e-03
2.3692927e-02
4.1305721e-02
5.4240123e-02
6.5465302e-02
7.2202798e-02
7.4809722e-02
7.2549233e-02
5.7938563e-02
3.6490883e-02
1.7965298e-02
6.0826970e-03
-1.4951140e-03
-9.8427926e-03
-1.6686228e-02
-1.8874150e-02
-1.6051554e-02
-9.2867934e-03
-2.8834495e-03
-7.1445476e-03
-2.7217719e-02
-5.0367625e-02
-6.9183921e-02
-8.6171110e-02
-1.0016995e-01
-1.1087396e-01
-1.1658470e-01
-1.1678378e-01
-1.1326060e-01
-1.0995723e-01
-1.1156628e-01
-1.1270279e-01
-1.0885567e-01
-1.0040635e-01
-8.4810251e-02
-6.2847200e-02
-3.5290895e-02
-1.8085705e-03
3.3787652e-02
5.9777300e-02
6.9765073e-02
7.8518727e-02
9.7133955e-02
1.2609905e-01
1.6996564e-01
2.2924671e-01
3.0100783e-01
3.7317412e-01
4.1858972e-01
4.0979989e-01
3.4280226e-01
2.4694674e-01
1.5197690e-01
6.9750086e-02
4.4173380e-03
-4.6779012e-02
-8.7363707e-02
-1.1782265e-01
-1.3908268e-01
-1.5299581e-01
-1.6234729e-01
-1.6792158e-01
-1.6894569e-01
-1.6623959e-01
-1.6204304e-01
-1.5857142e-01
-1.5261245e-01
-1.4045255e-01
-1.2363497e-01
-1.0441906e-01
-8.5660766e-02
-6.7907047e-02
-5.3227216e-02
-4.4456989e-02
-3.7143753e-02
-2.8448964e-02
-1.7690521e-02
-2.9201721e-03
1.4471520e-02
2.5197598e-02
2.3508970e-02
1.9576746e-02
1.7569699e-02
1.4680886e-02
1.1173794e-02
5.3184451e-03
2.1541775e-03
4.6444450e-03
9.9448212e-03
1.6300038e-02
2.0605978e-02
2.3582114e-02
1.7005866e-02
-5.4965054e-03
-2.9365936e-02
-4.7062923e-02
-5.8528614e-02
-6.0830625e-02
-5.6265379e-02
-5.1584317e-02
-4.9622667e-02
-4.1692574e-02
-2.7190532e-02
-1.1126760e-02
1.2614923e-02
4.6202552e-02
8.9470043e-02
1.3828065e-01
1.7287081e-01
1.7406569e-01
1.4965640e-01
1.2714604e-01
1.0989501e-01
8.9269908e-02
7.0054118e-02
5.2014192e-02
3.7651579e-02
2.7473343e-02
9.5485264e-03
-2.9477748e-02
-8.8802138e-02
-1.4716433e-01
-1.9169437e-01
-2.2098724e-01
-2.3330896e-01
-2.3179751e-01
-2.1658887e-01
-1.8976911e-01
-1.5997495e-01
-1.3679712e-01
-1.2133956e-01
-1.0113455e-01
-6.9948115e-02
-2.3347668e-02
4.0944274e-02
1.1487830e-01
2.0154231e-01
2.9243932e-01
3.4897021e-01
3.4502056e-01
3.0003786e-01
2.4940758e-01
2.0087841e-01
1.5948794e-01
1.3916411e-01
1.3993838e-01
1.5664106e-01
1.7962948e-01
1.8759569e-01
1.6307689e-01
1.1631565e-01
6.5549355e-02
8.1157283e-03
-5.1641828e-02
-9.9075014e-02
-1.3226898e-01
-1.5291810e-01
-1.6170825e-01
-1.6141560e-01
-1.6060298e-01
-1.6660552e-01
-1.7445461e-01
-1.8182696e-01
-1.8881896e-01
-1.8880842e-01
-1.8089452e-01
-1.6813371e-01
-1.5087516e-01
-1.2965530e-01
-1.0589578e-01
-7.9087281e-02
-5.2247162e-02
-3.4661328e-02
-2.2698001e-02
-3.1690327e-03
2.6732546e-02
6.6343025e-02
1.1198249e-01
1.4487966e-01
1.4312311e-01
1.1281638e-01
7.4126756e-02
3.1884484e-02
-2.6477461e-03
-1.5556412e-02
-7.0100634e-03
2.1853122e-02
6.9654564e-02
1.2895003e-01
1.7710832e-01
1.9912241e-01
2.0147438e-01
1.8174177e-01
1.4687178e-01
1.1665358e-01
9.6810428e-02
8.8431086e-02
8.5275458e-02
7.0342979e-02
2.9532124e-02
-3.0804242e-02
-8.8313734e-02
-1.3394732e-01
-1.6830487e-01
-1.9132425e-01
-2.0578139e-01
-2.1218305e-01
-2.1137255e-01
-2.0468246e-01
-1.9351418e-01
-1.8033524e-01
-1.6311153e-01
-1.3905517e-01
-1.0788863e-01
-6.6944740e-02
-1.2423532e-02
5.7918090e-02
1.3079471e-01
1.8106594e-01
1.9053456e-01
1.6257095e-01
1.2381226e-01
8.7529768e-02
5.4940261e-02
2.9539156e-02
1.0989732e-02
2.8253002e-03
3.2956601e-03
5.1943568e-03
-1.3162625e-03
-2.1741850e-02
-4.7649714e-02
-7.1811991e-02
-8.5764559e-02
-8.3401729e-02
-6.8323082e-02
-4.2965213e-02
-1.4200349e-02
6.3812491e-03
1.2682587e-02
9.5191635e-03
4.2816539e-03
-2.8059677e-03
-4.3662758e-03
9.2560482e-03
3.5966190e-02
7.3409051e-02
1.1168251e-01
1.3399485e-01
1.3618746e-01
1.2803426e-01
1.2005594e-01
1.0717510e-01
9.1581686e-02
8.6639297e-02
9.2495289e-02
1.0657507e-01
1.1460749e-01
8.6514623e-02
2.0385360e-02
-5.2632803e-02
-1.1134953e-01
-1.5488686e-01
-1.8547681e-01
-2.0258591e-01
-2.0559092e-01
-1.9412282e-01
-1.7644415e-01
-1.6621069e-01
-1.7069065e-01
-1.8598164e-01
-1.9662974e-01
-1.9369924e-01
-1.7627848e-01
-1.4603964e-01
-1.0888744e-01
-6.4845354e-02
-1.6991328e-02
2.2974175e-02
3.9947818e-02
3.3753114e-02
2.4636743e-02
2.4535032e-02
3.7308601e-02
4.8780668e-02
4.4327265e-02
4.4255539e-02
6.1889126e-02
8.0713319e-02
7.4152150e-02
4.1926247e-02
1.0441853e-02
-7.2548610e-03
-8.5755691e-04
2.4787149e-02
4.9927897e-02
7.8778051e-02
1.1267389e-01
1.3037986e-01
1.1313333e-01
6.9351936e-02
2.0467583e-02
-2.2091317e-02
-4.5910910e-02
-5.1715301e-02
-4.9257280e-02
-3.7690972e-02
-1.8698590e-02
2.3406407e-03
2.9046410e-02
7.7724482e-02
1.4931340e-01
2.2033991e-01
2.7008074e-01
2.8945615e-01
2.8931003e-01
2.9378901e-01
3.0833565e-01
3.1901755e-01
3.1183501e-01
2.9235755e-01
2.6720222e-01
2.1892445e-01
1.4772039e-01
6.8357807e-02
-9.1928074e-03
-6.8796462e-02
-1.1115792e-01
-1.4797085e-01
-1.8413736e-01
-2.1921815e-01
-2.5697206e-01
-3.0421089e-01
-3.4850740e-01
-3.7964786e-01
-4.0138852e-01
-4.1153155e-01
-4.0674495e-01
-3.8420360e-01
-3.4865009e-01
-3.0799682e-01
-2.6023052e-01
-2.0755096e-01
-1.5576788e-01
-1.0680607e-01
-5.9114007e-02
-7.1137005e-03
4.3931327e-02
8.0927811e-02
9.6481653e-02
9.8429116e-02
1.0779393e-01
1.3452660e-01
1.7967841e-01
2.3015921e-01
2.7155319e-01
3.1539175e-01
3.6174871e-01
3.8391062e-01
3.5987634e-01
3.0350329e-01
2.5162041e-01
2.1728982e-01
1.8869522e-01
1.4831695e-01
9.9550023e-02
6.5940043e-02
4.7983520e-02
2.4103160e-02
-2.4704141e-02
-9.3676252e-02
-1.5461061e-01
-1.9317483e-01
-2.0935404e-01
-2.1235149e-01
-2.1291271e-01
-2.0332751e-01
-1.8285935e-01
-1.6883296e-01
-1.7773261e-01
-2.0396055e-01
-2.2353697e-01
-2.2394419e-01
-2.0589180e-01
-1.7598774e-01
-1.3888532e-01
-9.0184628e-02
-2.8358624e-02
4.1840618e-02
1.0254152e-01
1.4269989e-01
1.6998329e-01
1.8548466e-01
1.9035731e-01
1.7281353e-01
1.3013913e-01
9.2600483e-02
7.2306588e-02
5.6525346e-02
3.5866922e-02
1.6520726e-02
9.7912803e-03
1.7915661e-02
3.9918833e-02
6.4085099e-02
8.3546817e-02
1.0954549e-01
1.4307194e-01
1.6446718e-01
1.4569987e-01
9.1521785e-02
3.6117711e-02
-5.8593297e-03
-3.3159152e-02
-4.8603335e-02
-5.3830349e-02
-4.2461859e-02
-1.8627184e-02
5.1790270e-03
1.4596442e-02
5.5077536e-03
-1.1547199e-02
-3.1356051e-02
-5.0374615e-02
-7.1790592e-02
-9.6991891e-02
-1.1456615e-01
-1.2135884e-01
-1.2265971e-01
-1.2224070e-01
-1.1792086e-01
-1.1035962e-01
-1.0515311e-01
-1.0097322e-01
-1.0053798e-01
-1.0390032e-01
-9.8920946e-02
-8.2348630e-02
-5.9792091e-02
-3.7810089e-02
-1.8226231e-02
-7.9258447e-03
-1.5910059e-02
-3.2350371e-02
-4.9158966e-02
-5.9967910e-02
-5.5985852e-02
-3.8224439e-02
-1.8405860e-02
-8.5137329e-03
5.7026255e-04
1.7991248e-02
4.1888852e-02
7.4529136e-02
1.0769603e-01
1.3937813e-01
1.8317900e-01
2.3424339e-01
2.6551104e-01
2.4615695e-01
1.8483639e-01
1.2360917e-01
8.0513292e-02
5.4948162e-02
3.0048234e-02
-7.9816454e-03
-3.9726400e-02
-5.4533447e-02
-6.2219810e-02
-7.5302801e-02
-9.4123538e-02
-1.0110469e-01
-8.7795546e-02
-6.2087884e-02
-4.7246563e-02
-5.1054114e-02
-4.8017842e-02
-2.6827495e-02
5.0661174e-03
3.9027914e-02
7.2885350e-02
1.0843710e-01
1.4299608e-01
1.7054164e-01
1.6351488e-01
1.1838713e-01
7.4194143e-02
4.3381448e-02
1.3811689e-02
-2.2384910e-02
-6.4312312e-02
-9.9504883e-02
-1.2135548e-01
-1.3070556e-01
-1.3098449e-01
-1.2450872e-01
-1.0674016e-01
-7.8963284e-02
-4.7359260e-02
-2.4236299e-02
-1.5840872e-02
-1.3059251e-02
-1.2903920e-02
-1.4041581e-02
-1.4548476e-02
-8.6777362e-03
1.0773789e-02
4.0276005e-02
6.9064012e-02
7.9812588e-02
7.3339959e-02
6.2476092e-02
4.3488607e-02
1.1818344e-02
-3.3378482e-02
-8.2181946e-02
-1.1972519e-01
-1.4469603e-01
-1.5808924e-01
-1.5970406e-01
-1.4805415e-01
-1.2546871e-01
-9.7824023e-02
-7.2490116e-02
-5.7518632e-02
-4.0191595e-02
-3.2854699e-03
4.9646834e-02
1.0320906e-01
1.4032084e-01
1.6533633e-01
1.8652979e-01
1.9978037e-01
2.0138796e-01
1.7418023e-01
1.2562669e-01
8.9498101e-02
7.4638877e-02
7.1474425e-02
6.3204432e-02
4.5964519e-02
2.9001373e-02
1.2307563e-02
-4.9095444e-03
-2.3403591e-02
-3.6073873e-02
-3.0848267e-02
-8.2958893e-03
2.2653156e-02
4.1431246e-02
3.9469065e-02
3.2086896e-02
2.7299059e-02
1.7937000e-02
-9.2866314e-03
-4.7330869e-02
-7.4829553e-02
-8.5810653e-02
-8.4982417e-02
-8.3090892e-02
-8.3801111e-02
-8.2957903e-02
-8.2049875e-02
-8.4420006e-02
-9.3804375e-02
-1.0424780e-01
-1.0764024e-01
-1.0568501e-01
-9.8224186e-02
-8.6493077e-02
-7.0964689e-02
-4.9407182e-02
-2.2607698e-02
3.8064320e-04
1.0153955e-02
1.9759929e-02
4.3577143e-02
7.6799701e-02
1.1358245e-01
1.4957949e-01
1.8375089e-01
2.0493649e-01
1.9794659e-01
1.6679190e-01
1.1724195e-01
6.7151293e-02
3.3040257e-02
9.8183595e-03
-7.5070615e-03
-2.2090093e-02
-3.3011990e-02
-4.1603800e-02
-5.3275825e-02
-6.6470237e-02
-7.9536365e-02
-8.5426254e-02
-7.7256038e-02
-5.7673069e-02
-3.1233229e-02
-4.4102124e-03
2.1303097e-02
3.8570546e-02
3.6949135e-02
1.7922915e-02
-1.5794061e-02
-5.2215578e-02
-7.7828577e-02
-9.1055837e-02
-9.2728726e-02
-8.3302030e-02
-6.2570472e-02
-4.0539858e-02
-2.8135029e-02
-3.0185306e-02
-5.1395999e-02
-7.8677018e-02
-9.6107772e-02
-1.0181783e-01
-9.5930061e-02
-7.8686145e-02
-4.9293358e-02
-1.0731293e-02
3.1414729e-02
6.6430035e-02
8.1461993e-02
8.2711049e-02
8.0561061e-02
7.8166624e-02
8.1989173e-02
9.8337631e-02
1.3228648e-01
1.6638323e-01
1.7818813e-01
1.6270816e-01
1.1525018e-01
5.6693067e-02
1.2462042e-02
-1.6247482e-02
-3.0637036e-02
-3.5011470e-02
-3.2218040e-02
-2.7783047e-02
-3.0528197e-02
-4.4485902e-02
-7.1482095e-02
-9.6386512e-02
-1.0573700e-01
-1.0277726e-01
-9.2479705e-02
-8.1401940e-02
-6.9013438e-02
-5.7775402e-02
-5.4537287e-02
-6.4226390e-02
-9.1944642e-02
-1.2120776e-01
-1.3547670e-01
-1.3491506e-01
-1.1857542e-01
-8.9520030e-02
-4.9140577e-02
-7.1362584e-04
4.9444630e-02
8.9857386e-02
1.0422370e-01
1.0705602e-01
1.2212915e-01
1.5249248e-01
1.9534898e-01
2.3680486e-01
2.6336418e-01
2.6383418e-01
2.3258813e-01
1.7796474e-01
1.0743679e-01
4.3559511e-02
2.3442515e-03
-2.0017656e-02
-2.3500612e-02
-1.3285418e-02
5.8529978e-03
1.9991827e-02
1.4235639e-02
-6.0032319e-03
-3.3425569e-02
-5.6473008e-02
-7.2743215e-02
-8.7156747e-02
-9.3126015e-02
-8.7194540e-02
-6.9966839e-02
-5.5915080e-02
-6.0831531e-02
-8.2014564e-02
-1.1420486e-01
-1.4686966e-01
-1.6995513e-01
-1.8118929e-01
-1.7689856e-01
-1.5451237e-01
-1.1513252e-01
-7.3753122e-02
-4.3310578e-02
-2.5171947e-02
-2.1307030e-02
-1.4804107e-02
1.2313095e-02
5.9397232e-02
1.1858635e-01
1.7540722e-01
2.1705849e-01
2.2784627e-01
2.0729334e-01
1.7436251e-01
1.3621452e-01
1.0072280e-01
7.1256313e-02
4.4566914e-02
2.9026340e-02
2.9246783e-02
4.4908693e-02
6.9073477e-02
8.9983844e-02
9.1667380e-02
5.7167783e-02
1.5101249e-03
-4.8865977e-02
-8.4986829e-02
-1.0376269e-01
-1.0702112e-01
-9.6944289e-02
-8.0794939e-02
-6.7890297e-02
-6.9219091e-02
-9.4019382e-02
-1.2573351e-01
-1.4787271e-01
-1.5866906e-01
-1.5552559e-01
-1.3964158e-01
-1.1236711e-01
-8.0841859e-02
-5.4779497e-02
-4.6534342e-02
-6.3798736e-02
-8.4023121e-02
-8.9753187e-02
-8.2417166e-02
-6.0752672e-02
-2.5720589e-02
2.2677490e-02
8.1221308e-02
1.4332153e-01
1.9391878e-01
2.2258513e-01
2.3856449e-01
2.2802248e-01
1.8354120e-01
1.3922998e-01
1.1643783e-01
1.1245318e-01
1.0308871e-01
7.0121732e-02
2.4395727e-02
-2.5701533e-02
-6.8497082e-02
-9.6654616e-02
-1.1180107e-01
-1.0863935e-01
-8.5360468e-02
-4.4209466e-02
-7.0892954e-03
4.7539942e-03
-4.7038881e-03
-2.8969298e-02
-5.3076773e-02
-7.2079582e-02
-8.8600696e-02
-9.1153248e-02
-7.4219104e-02
-3.9467405e-02
-5.4139658e-03
1.0988707e-02
1.2483543e-02
3.0698588e-03
-6.7366313e-03
-2.1829060e-02
-4.5635682e-02
-5.4909408e-02
-3.9152702e-02
-4.2340306e-03
3.1488329e-02
5.4762149e-02
6.4570672e-02
5.9382238e-02
5.6253349e-02
5.8144228e-02
5.7009432e-02
6.9921569e-02
1.0627991e-01
1.5771916e-01
1.9727759e-01
2.0734390e-01
1.9286360e-01
1.5622735e-01
1.1281681e-01
6.7531447e-02
1.9940856e-02
-1.3664723e-02
-2.6218361e-02
-1.9253058e-02
-2.3565370e-03
1.2584813e-02
1.0567034e-02
-1.6773992e-02
-4.8603104e-02
-7.1105018e-02
-8.5473257e-02
-8.6746511e-02
-7.3998635e-02
-5.1101801e-02
-2.4033445e-02
2.9277246e-03
1.6088441e-02
2.0363913e-03
-2.6773900e-02
-5.8121948e-02
-8.8923416e-02
-1.1306506e-01
-1.2729676e-01
-1.3253961e-01
-1.3266200e-01
-1.2913194e-01
-1.2379044e-01
-1.2175256e-01
-1.2286961e-01
-1.2249009e-01
-1.1675101e-01
-1.0274167e-01
-7.9287613e-02
-4.7798273e-02
-1.3978852e-02
1.5595629e-02
2.7754143e-02
1.3805452e-02
-8.9878852e-03
-2.3597426e-02
-2.6723468e-02
-1.6146647e-02
8.2329119e-03
3.8828897e-02
5.7648278e-02
5.8005349e-02
3.9894989e-02
2.0674745e-03
-3.9098634e-02
-7.2762569e-02
-9.6272296e-02
-1.0040302e-01
-8.1630672e-02
-4.4335888e-02
-6.1114743e-03
2.2564244e-02
3.9571255e-02
4.0480687e-02
3.4065308e-02
1.4208785e-02
-1.8629923e-02
-3.5166158e-02
-2.0231901e-02
2.3304888e-02
7.2301277e-02
1.0733323e-01
1.2848887e-01
1.3899186e-01
1.4867333e-01
1.4184238e-01
1.1191378e-01
9.6085644e-02
1.1661692e-01
1.6755166e-01
2.2388212e-01
2.6855693e-01
2.9904453e-01
3.1213181e-01
3.1124745e-01
2.7806298e-01
2.0312325e-01
1.1688417e-01
4.8297667e-02
7.2708613e-03
-1.6914346e-02
-3.5983023e-02
-6.3505541e-02
-1.1288252e-01
-1.6644465e-01
-2.0720759e-01
-2.3327121e-01
-2.4060150e-01
-2.3042293e-01
-2.0813634e-01
-1.8212325e-01
-1.5644803e-01
-1.4221056e-01
-1.5021457e-01
-1.6660969e-01
-1.7862157e-01
-1.8007250e-01
-1.6506981e-01
-1.3566225e-01
-9.7875288e-02
-6.1678853e-02
-2.9166569e-02
-1.1163337e-02
-2.0761036e-02
-4.0869993e-02
-6.0181179e-02
-7.4525087e-02
-7.1035371e-02
-4.5017234e-02
3.3098320e-05
5.0076612e-02
9.4384310e-02
1.2034783e-01
1.1862621e-01
1.0400069e-01
7.4845530e-02
3.0195658e-02
-6.8869507e-04
-1.4718206e-03
2.0634020e-02
4.8449830e-02
7.8335841e-02
1.0506135e-01
1.1660767e-01
1.1894319e-01
9.6270367e-02
4.0988943e-02
-9.7143706e-03
-2.9303031e-02
-1.9657804e-02
-1.7893770e-03
1.1419448e-02
1.3862097e-02
-2.7666126e-03
-3.1540207e-02
-7.7474218e-02
-1.3322441e-01
-1.6464434e-01
-1.5693582e-01
-1.1584762e-01
-6.8228618e-02
-3.7141793e-02
-2.3974083e-02
-2.0776063e-02
-1.6154741e-02
-2.9908963e-02
-6.8911902e-02
-9.3515039e-02
-7.7218684e-02
-1.9715336e-02
5.7886796e-02
1.3416591e-01
2.0058300e-01
2.5555508e-01
3.0384983e-01
3.2638655e-01
3.0629495e-01
2.5947020e-01
2.1785664e-01
2.1019810e-01
2.3466162e-01
2.6614397e-01
2.7706499e-01
2.6407254e-01
2.3959410e-01
1.8564682e-01
9.8699305e-02
1.6793405e-02
-3.5123793e-02
-5.4599894e-02
-5.6315172e-02
-6.3091764e-02
-9.5156981e-02
-1.5443650e-01
-2.1447457e-01
-2.6691387e-01
-3.1572711e-01
-3.4924115e-01
-3.6241081e-01
-3.5963967e-01
-3.4478291e-01
-3.1912402e-01
-3.0156508e-01
-3.0727225e-01
-3.1268090e-01
-2.9669447e-01
-2.5579972e-01
-1.8830847e-01
-9.6662822e-02
9.3087042e-03
1.0986125e-01
1.9362030e-01
2.5059826e-01
2.7921454e-01
2.9598795e-01
2.8644528e-01
2.4318082e-01
2.0543247e-01
1.9891639e-01
2.0862239e-01
2.1454095e-01
2.2558809e-01
2.3484815e-01
2.2414808e-01
2.0073343e-01
1.5315456e-01
8.0176514e-02
1.5764286e-02
-2.1704838e-02
-3.3878438e-02
-2.5744346e-02
-4.0243217e-03
5.6884475e-03
-1.5401498e-02
-5.4503829e-02
-1.0588681e-01
-1.6077561e-01
-2.0058147e-01
-2.2110431e-01
-2.2890387e-01
-2.3138669e-01
-2.2687559e-01
-2.1667688e-01
-2.0476824e-01
-1.9267741e-01
-1.9569499e-01
-2.1504055e-01
-2.2548453e-01
-2.1309543e-01
-1.8317236e-01
-1.4272554e-01
-9.0728120e-02
-3.9620851e-02
-2.2082618e-03
2.8191724e-02
4.0117401e-02
3.2320829e-02
3.7407389e-02
7.3231125e-02
1.2505030e-01
1.6674546e-01
1.9892538e-01
2.2634955e-01
2.4590570e-01
2.6228177e-01
2.5315671e-01
2.1292863e-01
1.8049718e-01
1.8209463e-01
2.1565261e-01
2.5283877e-01
2.6648057e-01
2.5063607e-01
2.1326294e-01
1.6821451e-01
1.0595710e-01
2.6912344e-02
-3.6760921e-02
-6.8461481e-02
-7.6685290e-02
-8.0730599e-02
-9.0256946e-02
-1.1501910e-01
-1.6038726e-01
-2.0749189e-01
-2.5374458e-01
-3.0076786e-01
-3.2895034e-01
-3.2739829e-01
-2.9716654e-01
-2.4152506e-01
-1.6739816e-01
-1.0241954e-01
-6.5829898e-02
-3.9687872e-02
-1.8769107e-02
-8.6207086e-04
3.6803921e-02
1.0319006e-01
1.7853905e-01
2.3413635e-01
2.6526646e-01
2.6956801e-01
2.4793842e-01
2.1661981e-01
1.6911337e-01
1.0884370e-01
6.5182673e-02
5.0548181e-02
5.9189522e-02
8.1252187e-02
1.0316217e-01
9.7865447e-02
6.0025935e-02
1.3943842e-02
-3.8527122e-02
-9.4853175e-02
-1.3434416e-01
-1.4853174e-01
-1.5478018e-01
-1.7942632e-01
-2.1482175e-01
-2.3789279e-01
-2.4225924e-01
-2.3959066e-01
-2.5313495e-01
-2.7844606e-01
-2.8710628e-01
-2.6694163e-01
-2.2217356e-01
-1.6271176e-01
-9.7437511e-02
-4.1375028e-02
7.5629519e-04
4.0571873e-02
6.7421151e-02
8.3882735e-02
1.2422265e-01
2.0347248e-01
3.0472238e-01
3.9168364e-01
4.3833880e-01
4.3836083e-01
4.0734380e-01
3.6588962e-01
2.9782951e-01
1.9999578e-01
1.1132351e-01
5.8681355e-02
4.1805405e-02
5.0118335e-02
7.1668930e-02
8.0088472e-02
6.2460432e-02
3.3157676e-02
-1.8731945e-02
-9.4119718e-02
-1.5658908e-01
-1.8663735e-01
-1.8699516e-01
-1.6156706e-01
-1.1544500e-01
-7.6368024e-02
-6.5560225e-02
-6.9990555e-02
-9.3312651e-02
-1.3565805e-01
-1.6731380e-01
-1.7323957e-01
-1.5955554e-01
-1.3337764e-01
-9.7564173e-02
-7.6074054e-02
-8.7855338e-02
-1.1205918e-01
-1.3531056e-01
-1.5238964e-01
-1.4821288e-01
-1.1767167e-01
-6.5254108e-02
1.6512605e-03
7.3547857e-02
1.2706440e-01
1.5331125e-01
1.6557538e-01
1.4966017e-01
1.0334945e-01
6.3199626e-02
5.3544258e-02
6.6675260e-02
8.6050806e-02
1.1253070e-01
1.3305346e-01
1.3245611e-01
1.1841060e-01
7.5094386e-02
6.9954651e-04
-6.5275611e-02
-9.9484578e-02
-1.0613320e-01
-9.6162818e-02
-7.1923389e-02
-5.1006572e-02
-5.1487381e-02
-5.9203408e-02
-6.9013627e-02
-7.6072653e-02
-5.9539183e-02
-1.0757401e-02
5.9276367e-02
1.1998324e-01
1.5563751e-01
1.6540683e-01
1.5081501e-01
1.2522534e-01
7.8416236e-02
1.1035654e-02
-4.3046288e-02
-6.7672770e-02
-7.5384656e-02
-9.0435479e-02
-1.1366893e-01
-1.2924825e-01
-1.2960233e-01
-1.1653652e-01
-1.0552638e-01
-9.5436583e-02
-6.1287630e-02
9.4361371e-03
9.3836940e-02
1.4803267e-01
1.6567586e-01
1.5936245e-01
1.3367640e-01
1.0385224e-01
6.3574478e-02
1.3035863e-02
-1.7991618e-02
-1.5198476e-02
1.5717681e-02
6.2296943e-02
1.0659441e-01
1.2138623e-01
1.0239776e-01
7.2699723e-02
3.0383346e-02
-2.4027509e-02
-6.2212986e-02
-6.9973403e-02
-5.5235395e-02
-3.1558303e-02
-4.9589815e-03
7.7756884e-03
-6.3130626e-03
-3.5213928e-02
-8.6437128e-02
-1.5895815e-01
-2.1958793e-01
-2.5073924e-01
-2.5189353e-01
-2.2571506e-01
-1.8402495e-01
-1.5638979e-01
-1.5370150e-01
-1.5264029e-01
-1.4502049e-01
-1.2581301e-01
-7.7848682e-02
5.3482622e-03
1.0362998e-01
1.7858132e-01
2.2634576e-01
2.6063061e-01
2.8607360e-01
3.0645162e-01
2.9842472e-01
2.5129568e-01
1.9692690e-01
1.6605031e-01
1.6065923e-01
1.6542399e-01
1.7319312e-01
1.6679416e-01
1.3561358e-01
9.6480967e-02
4.4705378e-02
-2.1224974e-02
-7.2205086e-02
-9.3423620e-02
-9.3847962e-02
-9.2323719e-02
-9.2729404e-02
-9.7816007e-02
-1.1742429e-01
-1.3879203e-01
-1.5970860e-01
-1.8249740e-01
-1.8952493e-01
-1.7310621e-01
-1.4029366e-01
-1.0428173e-01
-7.0170825e-02
-4.9273783e-02
-5.2671836e-02
-6.8460563e-02
-9.9003004e-02
-1.4061568e-01
-1.6639254e-01
-1.6492267e-01
-1.4372829e-01
-1.1572543e-01
-8.3028913e-02
-5.2538598e-02
-3.0860327e-02
-1.0929878e-02
-2.6268245e-03
-2.4608964e-03
2.0690140e-02
8.1378692e-02
1.6396487e-01
2.3235761e-01
2.6257164e-01
2.5170215e-01
2.1620822e-01
1.7530647e-01
1.1506328e-01
3.3506834e-02
-3.2855227e-02
-6.0276282e-02
-5.4474449e-02
-3.5469368e-02
-1.7958597e-02
-1.6889807e-02
-3.3796217e-02
-5.0992032e-02
-8.2727816e-02
-1.3453452e-01
-1.6928018e-01
-1.6236302e-01
-1.1868826e-01
-6.4041317e-02
-1.6569161e-02
1.8245284e-02
4.0290018e-02
5.6957792e-02
5.1753655e-02
1.6901508e-02
-1.5026622e-02
-1.2017868e-02
2.9851681e-02
8.3772523e-02
1.2729544e-01
1.5594084e-01
1.7390113e-01
1.8916455e-01
1.8676584e-01
1.5602727e-01
1.1576771e-01
9.0968637e-02
9.7891280e-02
1.2658516e-01
1.6206693e-01
1.9717858e-01
2.2726220e-01
2.5405976e-01
2.5788980e-01
2.2339846e-01
1.7094679e-01
1.3207498e-01
1.2041889e-01
1.1489698e-01
9.6887043e-02
6.5940345e-02
2.3828230e-02
-1.9350011e-02
-6.7206841e-02
-1.2177392e-01
-1.6136501e-01
-1.7401530e-01
-1.6763100e-01
-1.5482612e-01
-1.3700766e-01
-1.2464979e-01
-1.3235265e-01
-1.5069818e-01
-1.7365734e-01
-1.9694970e-01
-2.0967754e-01
-2.0960765e-01
-1.9923023e-01
-1.8485472e-01
-1.7139123e-01
-1.6591773e-01
-1.7561724e-01
-1.9244533e-01
-2.0871280e-01
-2.2136627e-01
-2.2447208e-01
-2.1665940e-01
-2.0011733e-01
-1.7740861e-01
-1.5010864e-01
-1.2605273e-01
-1.1000430e-01
-9.0145963e-02
-5.6923655e-02
-6.7612510e-03
6.4329107e-02
1.5313983e-01
2.4153713e-01
2.9710343e-01
3.1398536e-01
3.0787388e-01
2.8690404e-01
2.5880849e-01
2.0947456e-01
1.3996812e-01
8.5562921e-02
6.4640826e-02
7.2729983e-02
8.1898609e-02
7.2635070e-02
5.8317254e-02
5.2139379e-02
5.4307922e-02
4.3198626e-02
1.3340805e-02
-3.5706259e-03
1.0137048e-02
4.7006885e-02
7.7758140e-02
8.2655045e-02
6.1956535e-02
1.7724858e-02
-3.0308411e-02
-8.0849145e-02
-1.3965677e-01
-1.8376728e-01
-1.9827058e-01
-1.8470382e-01
-1.5581731e-01
-1.2346488e-01
-1.0249264e-01
-1.0606286e-01
-1.1491748e-01
-1.1797363e-01
-1.1595663e-01
-9.1841871e-02
-3.7522454e-02
4.1391550e-02
1.2275864e-01
1.8510367e-01
2.2236143e-01
2.3353805e-01
2.2854153e-01
1.9713197e-01
1.3458834e-01
7.6377206e-02
4.5987695e-02
4.3634250e-02
5.4927483e-02
6.6359354e-02
7.1426552e-02
6.1939761e-02
4.2520992e-02
1.1391828e-02
-2.4951439e-02
-4.0557146e-02
-2.5159693e-02
1.3057229e-02
4.4351497e-02
4.7788954e-02
2.4741407e-02
-2.2266828e-02
-7.1709967e-02
-1.0953439e-01
-1.3739059e-01
-1.4812395e-01
-1.3804579e-01
-1.0870843e-01
-7.0267415e-02
-3.2450454e-02
-7.0826431e-03
-3.6520140e-03
-9.0438489e-03
-1.8907638e-02
-3.3294153e-02
-3.8481042e-02
-2.7706829e-02
-4.6693792e-03
2.1361504e-02
4.8267235e-02
6.7975568e-02
6.9092322e-02
5.9605851e-02
3.9479957e-02
9.9669356e-03
-1.1290713e-02
-1.6147423e-02
-5.2636925e-03
1.2713344e-02
3.0155628e-02
3.5892910e-02
1.7333919e-02
-9.0220590e-03
-2.9004020e-02
-4.3481078e-02
-4.7117062e-02
-3.7686265e-02
-1.8612018e-02
-1.2030979e-03
8.6017270e-03
5.1198752e-03
-1.9239324e-02
-4.9170151e-02
-7.0948109e-02
-8.1482826e-02
-7.7300415e-02
-5.9319207e-02
-2.9099042e-02
-1.3503844e-05
1.5118098e-02
5.1125302e-03
-3.8964521e-02
-9.1112316e-02
-1.2709994e-01
-1.4650749e-01
-1.4834241e-01
-1.3262349e-01
-1.0082806e-01
-6.2462453e-02
-2.6418719e-02
4.1386785e-04
1.2735168e-02
2.5987847e-02
4.5983410e-02
6.5570806e-02
9.3628457e-02
1.3598093e-01
1.9085251e-01
2.3888259e-01
2.5979293e-01
2.5471036e-01
2.2877108e-01
1.9916573e-01
1.6347377e-01
1.0970297e-01
5.5902733e-02
1.7100582e-02
-6.1641313e-03
-2.5634874e-02
-5.1313144e-02
-8.3764986e-02
-1.2331753e-01
-1.5806156e-01
-1.7928782e-01
-1.8579836e-01
-1.7336592e-01
-1.4365355e-01
-1.0042488e-01
-5.7879150e-02
-3.1147785e-02
-2.7487681e-02
-4.8909332e-02
-7.4221923e-02
-8.7681302e-02
-8.8458099e-02
-7.1502353e-02
-4.1667599e-02
-9.6078393e-03
7.6176259e-03
-8.8831936e-04
-2.3380548e-02
-4.7396517e-02
-5.7419748e-02
-4.0948691e-02
1.0306273e-03
6.6726236e-02
1.4820974e-01
2.2369674e-01
2.6324139e-01
2.6731845e-01
2.5638196e-01
2.3611385e-01
2.1295157e-01
1.7383607e-01
1.1250667e-01
5.8330059e-02
2.8344366e-02
2.1151836e-02
2.0653621e-02
9.6637027e-03
-2.2392282e-02
-8.4142127e-02
-1.5381535e-01
-2.0746984e-01
-2.4194232e-01
-2.5381213e-01
-2.4249636e-01
-2.1069947e-01
-1.6960455e-01
-1.3062671e-01
-1.0492750e-01
-1.0199949e-01
-1.0543844e-01
-1.0331913e-01
-9.7526398e-02
-8.0421313e-02
-4.6289273e-02
6.3379465e-03
6.5573187e-02
1.1423579e-01
1.4237122e-01
1.5056376e-01
1.6383466e-01
1.9468119e-01
2.3432336e-01
2.7716961e-01
3.0767043e-01
3.1659201e-01
2.9960100e-01
2.4747475e-01
1.6394539e-01
6.1389533e-02
-3.4359973e-02
-1.0631563e-01
-1.5622150e-01
-1.8321015e-01
-1.8914691e-01
-1.7639750e-01
-1.4936211e-01
-1.1609836e-01
-9.5771021e-02
-1.0307338e-01
-1.1734540e-01
-1.1847758e-01
-1.0581609e-01
-8.0221215e-02
-4.4544436e-02
-7.3921602e-04
4.0168112e-02
6.8034260e-02
7.4190614e-02
4.2060546e-02
-1.3214129e-02
-6.2568586e-02
-9.9847533e-02
-1.2438685e-01
-1.3845188e-01
-1.4382261e-01
-1.4568253e-01
-1.5282976e-01
-1.6566624e-01
-1.8166694e-01
-1.8831200e-01
-1.7337705e-01
-1.3492832e-01
-7.2705048e-02
7.9234824e-03
9.7587399e-02
1.7155145e-01
2.1491155e-01
2.3764291e-01
2.4528463e-01
2.5594927e-01
2.7704772e-01
2.9434961e-01
3.0434406e-01
3.0133698e-01
2.8580376e-01
2.5809989e-01
2.1343371e-01
1.5794833e-01
9.0555161e-02
1.2298853e-02
-6.5407328e-02
-1.2977444e-01
-1.6873181e-01
-1.7881823e-01
-1.6077157e-01
-1.3083613e-01
-1.0897438e-01
-1.0645155e-01
-1.2994991e-01
-1.5881179e-01
-1.7288238e-01
-1.7387954e-01
-1.6344372e-01
-1.4192905e-01
-1.0781079e-01
-7.0245944e-02
-4.0688235e-02
-2.3201625e-02
-2.8229710e-02
-4.4061588e-02
-4.7744139e-02
-3.5192611e-02
-6.6709318e-03
3.3157713e-02
8.1924450e-02
1.3451185e-01
1.8024964e-01
2.0584461e-01
1.7956952e-01
1.0576463e-01
3.4362687e-02
-1.2893606e-02
-4.1870210e-02
-6.0092479e-02
-6.8528317e-02
-6.3272626e-02
-4.4675415e-02
-2.0785121e-02
8.5381169e-05
2.7217532e-02
7.0557688e-02
1.2360387e-01
1.6795667e-01
1.7652659e-01
1.4795406e-01
1.0815357e-01
7.1413927e-02
3.8075159e-02
3.5539485e-04
-3.9972117e-02
-6.8698115e-02
-8.3649677e-02
-9.3371965e-02
-1.0296254e-01
-1.0541239e-01
-9.3839441e-02
-6.9975772e-02
-4.2681465e-02
-2.9867632e-02
-3.1247955e-02
-2.7900304e-02
-1.3783521e-02
9.5241775e-03
3.1825904e-02
4.3588946e-02
4.4291392e-02
3.1909314e-02
1.4510419e-02
-1.4343481e-03
-1.4556659e-02
-2.3106687e-02
-3.0911927e-02
-4.0683820e-02
-5.6419563e-02
-7.5263476e-02
-8.7169578e-02
-9.2336582e-02
-9.3475077e-02
-8.9329575e-02
-7.6226113e-02
-5.1767885e-02
-2.0827068e-02
1.0109054e-02
3.0554315e-02
3.8012316e-02
4.1152515e-02
4.1789074e-02
3.7454464e-02
2.7348636e-02
2.2008300e-02
3.0258776e-02
4.5985695e-02
5.5327408e-02
4.1768651e-02
1.2417662e-02
-1.2213782e-02
-2.8872173e-02
-4.4866700e-02
-7.0505716e-02
-1.0085699e-01
-1.1772086e-01
-1.1704046e-01
-1.0436953e-01
-8.3229838e-02
-5.0017680e-02
7.9574538e-04
6.7077501e-02
1.3075129e-01
1.5727133e-01
1.4676883e-01
1.3617218e-01
1.3699678e-01
1.4050588e-01
1.4060083e-01
1.4142689e-01
1.4786580e-01
1.5502551e-01
1.5108778e-01
1.1749198e-01
6.6074354e-02
2.5617235e-02
-8.0446606e-04
-2.4934827e-02
-5.9370078e-02
-1.0059975e-01
-1.3182080e-01
-1.4595465e-01
-1.4928623e-01
-1.5872202e-01
-1.8029106e-01
-1.9961931e-01
-2.0935918e-01
-2.1095079e-01
-2.0589731e-01
-1.9375683e-01
-1.7086018e-01
-1.3703278e-01
-9.9401951e-02
-7.6774663e-02
-6.9810596e-02
-5.3375592e-02
-1.7703164e-02
2.4277070e-02
4.7152415e-02
4.8105820e-02
5.4820773e-02
8.0141302e-02
1.2287714e-01
1.6664358e-01
1.9848900e-01
2.3475589e-01
2.7641966e-01
3.0514025e-01
3.0494649e-01
2.8163964e-01
2.5278554e-01
2.2126629e-01
1.9447233e-01
1.6603631e-01
1.3110252e-01
1.0588658e-01
8.7801906e-02
5.6068160e-02
-1.1806513e-02
-1.0972385e-01
-2.0092725e-01
-2.6773052e-01
-3.0876779e-01
-3.2355764e-01
-3.1682709e-01
-2.9175746e-01
-2.5297157e-01
-2.0950369e-01
-1.7449054e-01
-1.4896061e-01
-1.1964961e-01
-8.0124575e-02
-3.4704355e-02
-3.5106661e-04
2.1935138e-02
5.6507481e-02
1.0292125e-01
1.3262971e-01
1.2520996e-01
9.2097571e-02
6.5078064e-02
5.8638885e-02
7.3509479e-02
1.0176150e-01
1.3481611e-01
1.7723182e-01
2.2162438e-01
2.4356599e-01
2.2040576e-01
1.6300913e-01
1.1094360e-01
8.1075780e-02
7.1041461e-02
6.3915325e-02
4.4966177e-02
3.2676650e-02
3.5655962e-02
3.6580242e-02
1.3182136e-02
-3.6071466e-02
-9.0001867e-02
-1.3874800e-01
-1.7599508e-01
-2.0544744e-01
-2.3548679e-01
-2.5481070e-01
-2.5610057e-01
-2.4409266e-01
-2.2261041e-01
-1.9020095e-01
-1.4499740e-01
-8.8683595e-02
-3.3094094e-02
-9.0177803e-03
-2.2497823e-02
-3.8727542e-02
-4.1445904e-02
-3.8702371e-02
-4.4936249e-02
-6.5497858e-02
-8.3585657e-02
-8.8700979e-02
-8.0021732e-02
-6.6192470e-02
-5.2506462e-02
-2.4500928e-02
2.0633517e-02
7.1396529e-02
1.0935585e-01
1.2790257e-01
1.4297214e-01
1.6383964e-01
2.0029305e-01
2.3960524e-01
2.6138697e-01
2.8607141e-01
3.2456661e-01
3.5294046e-01
3.4394594e-01
3.0575868e-01
2.6950135e-01
2.4150316e-01
2.1334412e-01
1.6336013e-01
8.4114806e-02
7.5719430e-03
-5.0010414e-02
-9.6453908e-02
-1.4415353e-01
-1.9902170e-01
-2.4919701e-01
-2.8752554e-01
-3.1447064e-01
-3.3618387e-01
-3.5788179e-01
-3.7031775e-01
-3.7096364e-01
-3.6653655e-01
-3.6341794e-01
-3.6229153e-01
-3.5793470e-01
-3.4620101e-01
-3.1707853e-01
-2.7040444e-01
-2.1054480e-01
-1.2897486e-01
-2.4966951e-02
9.6120184e-02
2.2911582e-01
3.6912773e-01
5.0757941e-01
6.1810690e-01
6.8002266e-01
6.8917377e-01
6.6164623e-01
6.3034681e-01
5.9612865e-01
5.2815073e-01
4.0667863e-01
2.5253529e-01
1.0544959e-01
-2.2338252e-02
-1.2668968e-01
-2.0091037e-01
-2.4690887e-01
-2.6625477e-01
-2.6252429e-01
-2.4189046e-01
-2.2165261e-01
-2.1488268e-01
-2.1301540e-01
-2.1082756e-01
-2.0616739e-01
-1.9793468e-01
-1.8933300e-01
-1.7728242e-01
-1.6190666e-01
-1.4857474e-01
-1.4564832e-01
-1.5618449e-01
-1.6721848e-01
-1.6978973e-01
-1.6273146e-01
-1.4750867e-01
-1.2696680e-01
-9.6834083e-02
-5.6504989e-02
-9.7807315e-03
3.6541043e-02
7.7978994e-02
1.1770917e-01
1.5505969e-01
1.8832071e-01
1.9750984e-01
1.7062773e-01
1.3951589e-01
1.2332277e-01
1.1063159e-01
8.3116755e-02
3.8193985e-02
-6.3264600e-03
-4.1624000e-02
-6.1921697e-02
-6.6903001e-02
-6.3333966e-02
-4.7503510e-02
-2.2796952e-02
-4.3682951e-03
-6.9435594e-03
-2.8566555e-02
-5.0414371e-02
-6.3472490e-02
-5.8619319e-02
-3.0650181e-02
1.1200691e-02
6.3399625e-02
1.1870466e-01
1.5414924e-01
1.5252274e-01
1.2620887e-01
9.8986499e-02
7.8198016e-02
6.6527277e-02
6.4614107e-02
7.0895240e-02
8.7935468e-02
1.0307935e-01
9.6032908e-02
6.0526150e-02
7.9178995e-03
-3.7207791e-02
-6.2142637e-02
-6.7079542e-02
-5.2867080e-02
-2.3725711e-02
1.8332227e-02
6.6954257e-02
1.0015116e-01
9.0876336e-02
4.2617628e-02
-1.1814417e-02
-5.5027508e-02
-8.4214487e-02
-1.0193539e-01
-1.1372230e-01
-1.1771821e-01
-1.1778890e-01
-1.1909557e-01
-1.1867360e-01
-1.1431977e-01
-1.0641358e-01
-9.7783726e-02
-8.6770191e-02
-7.0726543e-02
-5.2741381e-02
-3.0059476e-02
-1.6879271e-03
2.5804023e-02
4.2636491e-02
4.4564476e-02
3.9195200e-02
2.7628115e-02
1.2453513e-02
2.1275634e-03
-4.6357671e-03
-8.8720898e-03
-8.2918574e-03
-5.8106731e-03
-1.2822778e-02
-3.2601901e-02
-4.9032268e-02
-5.2141804e-02
-4.4642398e-02
-3.0288528e-02
-9.4470849e-03
2.2480480e-02
6.3172257e-02
1.0269281e-01
1.2171306e-01
1.1065584e-01
8.7222635e-02
6.3887696e-02
4.8229369e-02
4.3665880e-02
4.1028631e-02
3.9167506e-02
3.9851754e-02
3.9578172e-02
3.3891508e-02
2.2033873e-02
1.0981451e-02
3.1320728e-03
-4.8947199e-04
-4.5099939e-03
-1.8092394e-02
-2.9770399e-02
-3.1842195e-02
-3.1677038e-02
-3.5752630e-02
-4.5618626e-02
-5.7307005e-02
-6.9440425e-02
-7.5777403e-02
-7.2266860e-02
-6.3625775e-02
-4.9211215e-02
-3.1047848e-02
-1.8876644e-02
-2.0932130e-02
-3.5674727e-02
-5.0034400e-02
-5.6335647e-02
-5.2363839e-02
-3.7189521e-02
-1.3488014e-02
2.1314245e-02
6.5595238e-02
1.0942972e-01
1.4012572e-01
1.5212740e-01
1.5089126e-01
1.3259103e-01
1.0087108e-01
7.6902724e-02
6.6903896e-02
6.4224308e-02
6.1144188e-02
4.7730279e-02
2.0260851e-02
-1.5898448e-02
-4.9498497e-02
-7.7297777e-02
-1.0053752e-01
-1.1264321e-01
-1.1192259e-01
-1.0051868e-01
-8.2658604e-02
-6.8549093e-02
-6.3248644e-02
-6.1687648e-02
-5.6376317e-02
-5.4103639e-02
-6.2679416e-02
-7.5044903e-02
-8.7984153e-02
-9.7616515e-02
-9.7537576e-02
-8.8944484e-02
-7.8527191e-02
-6.9567347e-02
-5.4855627e-02
-3.2211958e-02
-2.4555450e-03
3.7993099e-02
8.9774262e-02
1.5509832e-01
2.2925970e-01
2.9358614e-01
3.2116722e-01
3.0210490e-01
2.5484285e-01
1.9314474e-01
1.2895682e-01
7.5746632e-02
3.2433699e-02
-1.6531288e-03
-2.6123027e-02
-4.7733487e-02
-6.9781809e-02
-9.1472378e-02
-1.1041716e-01
-1.2171984e-01
-1.2224085e-01
-1.1257969e-01
-9.5327733e-02
-7.0013635e-02
-3.9995794e-02
-1.4524307e-02
-5.4230738e-03
-1.7748996e-02
-3.7565124e-02
-5.3380388e-02
-6.4052602e-02
-6.9631145e-02
-7.2583416e-02
-7.2721439e-02
-7.0322054e-02
-6.7713642e-02
-6.6519224e-02
-6.6888199e-02
-6.3556307e-02
-5.3263649e-02
-3.6378418e-02
-1.4867453e-02
6.9842678e-03
2.9328589e-02
5.1901323e-02
7.1216315e-02
8.4447993e-02
9.3520247e-02
1.0770694e-01
1.2604046e-01
1.4193547e-01
1.5700141e-01
1.6540440e-01
1.6427547e-01
1.5418714e-01
1.2836258e-01
9.0859840e-02
5.4051168e-02
2.6099917e-02
4.1651037e-03
-1.7994825e-02
-3.8222876e-02
-5.5808442e-02
-7.2615627e-02
-8.8347933e-02
-1.0076750e-01
-1.0737062e-01
-1.0788092e-01
-1.0147093e-01
-9.3163302e-02
-9.0122040e-02
-8.9727383e-02
-8.8442785e-02
-8.4385880e-02
-7.7691957e-02
-7.2116068e-02
-7.2690294e-02
-8.2648650e-02
-9.6286639e-02
-1.0840344e-01
-1.1751077e-01
-1.2169339e-01
-1.2082512e-01
-1.1155548e-01
-9.3437622e-02
-7.1454632e-02
-5.1737932e-02
-3.7522168e-02
-2.0933210e-02
3.5247678e-03
3.6231351e-02
7.4321627e-02
1.1098334e-01
1.5240153e-01
2.0492371e-01
2.6142119e-01
3.0380062e-01
3.1270284e-01
2.9133659e-01
2.4607284e-01
1.8104522e-01
1.1872639e-01
7.0864782e-02
3.4049395e-02
6.3798188e-03
-1.6030641e-02
-3.8609064e-02
-6.6777408e-02
-9.6750979e-02
-1.2033513e-01
-1.3403983e-01
-1.3677563e-01
-1.3163511e-01
-1.2037436e-01
-1.0189562e-01
-7.7579321e-02
-5.1885521e-02
-3.4459722e-02
-2.8825854e-02
-2.7831724e-02
-2.5683266e-02
-2.1209542e-02
-1.6951828e-02
-1.1908020e-02
-4.7604689e-03
5.5445938e-04
-1.1109466e-03
-1.1967034e-02
-2.3310710e-02
-2.8695172e-02
-2.9389241e-02
-2.4650366e-02
-1.5630562e-02
-3.8279477e-04
2.4753204e-02
5.7808569e-02
9.1090478e-02
1.1304394e-01
1.2621600e-01
1.2880552e-01
1.1018165e-01
8.2093727e-02
5.4172833e-02
3.1239490e-02
1.7730352e-02
7.3237055e-03
-2.3822556e-03
-1.2791287e-02
-2.3844952e-02
-3.2625553e-02
-3.7593169e-02
-3.7682929e-02
-3.5239718e-02
-3.0932118e-02
-2.3669253e-02
-1.4743214e-02
-4.4244916e-03
1.1163561e-03
-4.3679199e-03
-1.7048332e-02
-3.2384909e-02
-4.8027325e-02
-6.4448928e-02
-8.1169509e-02
-9.4817179e-02
-1.0457303e-01
-1.1020641e-01
-1.1176027e-01
-1.0837998e-01
-9.8383005e-02
-8.2172677e-02
-6.1345636e-02
-3.8616497e-02
-1.1997351e-02
2.1123988e-02
5.4354439e-02
7.4007827e-02
7.3533217e-02
6.7017236e-02
6.8114512e-02
7.9414927e-02
9.5281968e-02
1.0435557e-01
1.1073569e-01
1.2060575e-01
1.2733515e-01
1.2715367e-01
1.1664858e-01
9.7913240e-02
7.9600971e-02
6.4628170e-02
5.4369977e-02
4.4532240e-02
3.2943775e-02
2.4014956e-02
1.4878439e-02
-1.6030888e-04
-2.4710548e-02
-5.3548465e-02
-7.8224385e-02
-9.8842745e-02
-1.1157169e-01
-1.1414910e-01
-1.1139120e-01
-1.0376635e-01
-9.1196463e-02
-7.6419320e-02
-6.7397215e-02
-6.8296731e-02
-7.2384322e-02
-7.4810189e-02
-7.5336662e-02
-7.5644581e-02
-7.4367444e-02
-6.9574636e-02
-6.1884837e-02
-5.1096161e-02
-4.3167246e-02
-4.1773529e-02
-3.9465382e-02
-2.8162691e-02
-5.2002253e-03
2.7107809e-02
6.8534814e-02
1.1949047e-01
1.7196604e-01
2.1251357e-01
2.1720715e-01
1.7962759e-01
1.2874970e-01
8.3065803e-02
4.7785663e-02
2.7076847e-02
1.9421139e-02
2.3468476e-02
3.4601892e-02
4.1819974e-02
3.0188424e-02
9.0783314e-04
-2.8146568e-02
-4.7777079e-02
-5.5462332e-02
-5.1307844e-02
-3.8794942e-02
-1.9819873e-02
1.1755715e-03
1.3284350e-02
8.1980479e-03
-6.5479663e-03
-2.1507701e-02
-3.5383311e-02
-4.6312831e-02
-5.5459326e-02
-6.4388520e-02
-7.1346281e-02
-7.7306445e-02
-8.7637850e-02
-1.0645948e-01
-1.2878623e-01
-1.4995942e-01
-1.6974113e-01
-1.8259070e-01
-1.8442239e-01
-1.7585413e-01
-1.5590336e-01
-1.2245622e-01
-7.3891189e-02
-2.1719260e-02
1.6097602e-02
4.3162344e-02
7.0163544e-02
9.4554717e-02
1.1469879e-01
1.3944655e-01
1.7588810e-01
2.1880852e-01
2.4965854e-01
2.4410338e-01
2.0910993e-01
1.8071094e-01
1.7744336e-01
1.9135253e-01
1.9973609e-01
1.9390819e-01
1.8455819e-01
1.7696961e-01
1.6456340e-01
1.3308545e-01
8.5849824e-02
4.0712870e-02
4.0959626e-03
-1.9871661e-02
-4.1154544e-02
-7.9903435e-02
-1.3093787e-01
-1.7585990e-01
-2.0478615e-01
-2.1807346e-01
-2.1830159e-01
-2.0792438e-01
-1.9105861e-01
-1.6761770e-01
-1.3965885e-01
-1.1147833e-01
-8.1418677e-02
-4.7359021e-02
-9.4932415e-03
1.9521937e-02
2.7296276e-02
2.2902740e-02
1.7350061e-02
1.5236198e-02
1.1237131e-02
9.5884035e-04
-6.6205194e-03
-4.9678953e-03
6.8418640e-03
2.4184949e-02
4.2361937e-02
5.9307294e-02
7.0724581e-02
7.9663586e-02
8.5169027e-02
7.6493268e-02
5.6999162e-02
4.0313545e-02
3.3016825e-02
2.0241726e-02
-1.2765775e-02
-5.2064067e-02
-8.5697724e-02
-1.1298683e-01
-1.3334401e-01
-1.4597431e-01
-1.4919505e-01
-1.4361122e-01
-1.2861538e-01
-1.1236902e-01
-1.0366562e-01
-9.3659557e-02
-7.3566660e-02
-4.2951925e-02
-2.3675924e-03
4.9989280e-02
1.1567956e-01
1.8571762e-01
2.4140024e-01
2.5754755e-01
2.3167675e-01
1.8495806e-01
1.2896528e-01
7.8664208e-02
3.8640744e-02
9.1126914e-04
-2.8479152e-02
-4.1793378e-02
-3.9982161e-02
-3.5090108e-02
-3.4962641e-02
-3.5686155e-02
-3.5885909e-02
-4.2449772e-02
-6.2699967e-02
-8.4462995e-02
-9.2856494e-02
-8.7896619e-02
-7.1026340e-02
-5.6646724e-02
-5.7183765e-02
-5.6217388e-02
-3.9793745e-02
-2.2903779e-02
-2.7926833e-02
-5.1965506e-02
-7.5943776e-02
-8.7384912e-02
-8.0509621e-02
-6.8292394e-02
-6.5807003e-02
-6.5184443e-02
-5.9987005e-02
-4.7353888e-02
-3.1365631e-02
-2.3829328e-02
-1.5084128e-02
1.3399425e-02
6.7535142e-02
1.2458554e-01
1.6084333e-01
1.8048247e-01
1.8922958e-01
2.0706206e-01
2.3658470e-01
2.4149769e-01
2.1551303e-01
1.8697226e-01
1.7448767e-01
1.6346005e-01
1.3573123e-01
1.0321942e-01
7.7285828e-02
5.5512261e-02
2.7782093e-02
-1.1819699e-02
-5.2012162e-02
-7.6989470e-02
-8.0848912e-02
-7.9806232e-02
-8.9229012e-02
-1.0446463e-01
-1.2815772e-01
-1.5923578e-01
-1.9222905e-01
-2.3114281e-01
-2.6643806e-01
-2.8630604e-01
-2.8992089e-01
-2.8518334e-01
-2.8058214e-01
-2.7362464e-01
-2.6201189e-01
-2.4613461e-01
-2.2110768e-01
-1.7951288e-01
-1.1592312e-01
-2.7626604e-02
8.6146988e-02
2.0899559e-01
3.2113563e-01
4.1996696e-01
4.8663841e-01
5.0367901e-01
4.8212556e-01
4.2835013e-01
3.4856413e-01
2.6791929e-01
2.0948041e-01
1.7442033e-01
1.5668742e-01
1.5383722e-01
1.4809604e-01
1.1895740e-01
6.6060572e-02
-3.6529896e-03
-7.6253577e-02
-1.3117054e-01
-1.6022676e-01
-1.7114655e-01
-1.7214246e-01
-1.6922589e-01
-1.7658206e-01
-1.9961659e-01
-2.2918580e-01
-2.5741595e-01
-2.7601140e-01
-2.7882437e-01
-2.6407465e-01
-2.4786064e-01
-2.4746220e-01
-2.4732832e-01
-2.3448476e-01
-2.1019090e-01
-1.7140534e-01
-1.1860316e-01
-4.9816687e-02
3.8677098e-02
1.4241553e-01
2.3710763e-01
3.0685542e-01
3.5730972e-01
3.6965504e-01
3.3979552e-01
2.8966227e-01
2.2009782e-01
1.4205415e-01
8.0572500e-02
4.6008396e-02
2.8870574e-02
1.6712442e-02
1.1235070e-02
6.3917860e-03
-3.6379507e-03
-1.6142190e-02
-4.1142815e-02
-7.4220211e-02
-9.0809879e-02
-8.0460007e-02
-6.0736916e-02
-4.9891220e-02
-4.5279493e-02
-4.9413785e-02
-5.8696034e-02
-7.0590244e-02
-1.0492561e-01
-1.5709360e-01
-1.9547380e-01
-2.0419582e-01
-1.8838030e-01
-1.5503226e-01
-1.1007063e-01
-7.9105918e-02
-7.1232796e-02
-6.6393035e-02
-6.4868479e-02
-6.0665881e-02
-2.9699053e-02
3.7805515e-02
1.3160037e-01
2.3658824e-01
3.3616471e-01
3.9785064e-01
4.0950356e-01
3.8436359e-01
3.2019276e-01
2.2450310e-01
1.3377219e-01
7.4574481e-02
3.8280757e-02
8.3373637e-03
-1.2068032e-02
-2.5775149e-02
-3.9199858e-02
-4.9856442e-02
-7.2778818e-02
-1.1400206e-01
-1.4581658e-01
-1.4723909e-01
-1.2439776e-01
-8.6400490e-02
-3.8551112e-02
-6.9613918e-03
-6.5126527e-03
-2.0894518e-02
-4.8810658e-02
-8.7118183e-02
-1.1114645e-01
-1.0763387e-01
-8.2138053e-02
-4.0305324e-02
8.5873940e-03
3.1267456e-02
1.4835126e-02
-1.8306119e-02
-6.7601194e-02
-1.3033889e-01
-1.7905841e-01
-1.9906367e-01
-1.9087463e-01
-1.5566549e-01
-9.1965866e-02
-1.5223229e-02
5.8263957e-02
1.2440263e-01
1.5482595e-01
1.4352762e-01
1.3069982e-01
1.4433038e-01
1.7818350e-01
2.1963327e-01
2.6564863e-01
2.9183526e-01
2.7845473e-01
2.3473813e-01
1.6311135e-01
7.6074430e-02
5.8842517e-03
-3.1942099e-02
-4.9423958e-02
-6.4444627e-02
-7.3663711e-02
-7.8953174e-02
-8.8184616e-02
-9.3477849e-02
-1.0709199e-01
-1.3536474e-01
-1.5328059e-01
-1.4706182e-01
-1.2316351e-01
-9.0150066e-02
-5.3570644e-02
-3.5455113e-02
-4.6590851e-02
-6.7397438e-02
-9.9683223e-02
-1.4465726e-01
-1.7719218e-01
-1.8387746e-01
-1.7083070e-01
-1.4439526e-01
-1.0441856e-01
-6.7299434e-02
-4.3566331e-02
-2.4194860e-02
-2.0858306e-02
-3.1811088e-02
-2.5200721e-02
1.5442486e-02
8.5998377e-02
1.7682333e-01
2.7169369e-01
3.4074614e-01
3.6921421e-01
3.6295839e-01
3.1447724e-01
2.2839911e-01
1.4044688e-01
7.8651542e-02
4.6666527e-02
3.9801264e-02
5.2842165e-02
5.8945579e-02
4.1181463e-02
1.4761759e-02
-2.5121928e-02
-7.8209484e-02
-1.1689069e-01
-1.2747595e-01
-1.1758045e-01
-9.6159396e-02
-6.2754505e-02
-3.5778169e-02
-3.0394118e-02
-3.3154630e-02
-5.3218347e-02
-9.5768459e-02
-1.3211753e-01
-1.4617071e-01
-1.4147589e-01
-1.2619647e-01
-1.0377344e-01
-9.0409144e-02
-1.0083186e-01
-1.1897263e-01
-1.4105041e-01
-1.6576319e-01
-1.7363332e-01
-1.5635098e-01
-1.2355714e-01
-8.5610267e-02
-3.4513101e-02
2.6319049e-02
8.6369108e-02
1.4227905e-01
1.6511228e-01
1.4524475e-01
1.1939607e-01
1.1826732e-01
1.3640161e-01
1.4703527e-01
1.4588353e-01
1.3206800e-01
1.0002717e-01
6.4519720e-02
1.9447272e-02
-3.6846212e-02
-7.0752840e-02
-6.4282227e-02
-2.6983672e-02
1.6414810e-02
5.1721839e-02
7.5267851e-02
8.6677064e-02
9.6599901e-02
8.9258196e-02
5.8689940e-02
3.9971266e-02
5.2711408e-02
8.3919825e-02
9.9009249e-02
8.4403280e-02
5.2116771e-02
1.0553369e-02
-2.7194349e-02
-6.3494498e-02
-9.9694421e-02
-1.1477465e-01
-9.7932565e-02
-5.5558760e-02
-3.5449493e-03
5.2344217e-02
1.0452009e-01
1.4163142e-01
1.6339314e-01
1.4575505e-01
8.6189236e-02
2.7931705e-02
-5.0335741e-03
-1.5104143e-02
-1.1742892e-02
-6.7132099e-04
1.1673995e-03
-2.1596997e-02
-5.3551240e-02
-8.6924108e-02
-1.1981128e-01
-1.3814531e-01
-1.3656548e-01
-1.2079201e-01
-1.0303587e-01
-8.6953830e-02
-8.1388369e-02
-9.7443796e-02
-1.2086676e-01
-1.4391818e-01
-1.6478912e-01
-1.7147792e-01
-1.5957207e-01
-1.3275620e-01
-9.7992123e-02
-5.7937870e-02
-2.6701026e-02
-1.7996699e-02
-1.9230318e-02
-2.6396400e-02
-3.5782453e-02
-2.8007452e-02
4.6175916e-03
4.7231171e-02
7.7064173e-02
9.5749606e-02
1.1698764e-01
1.4835483e-01
1.8484686e-01
1.9395385e-01
1.6650011e-01
1.3707504e-01
1.2810557e-01
1.3643559e-01
1.4776138e-01
1.5658244e-01
1.5216336e-01
1.2111764e-01
8.0403789e-02
3.4121971e-02
-2.0114923e-02
-5.9258745e-02
-7.0600959e-02
-5.9908200e-02
-4.5640673e-02
-3.8803545e-02
-4.2565860e-02
-6.1747741e-02
-8.4088652e-02
-1.0822786e-01
-1.3440909e-01
-1.4464018e-01
-1.3162867e-01
-9.9200120e-02
-6.7785370e-02
-5.3378282e-02
-5.8218619e-02
-8.4277315e-02
-1.1247163e-01
-1.3402248e-01
-1.5065336e-01
-1.4824276e-01
-1.1994946e-01
-7.0929281e-02
-2.2423943e-02
1.2407431e-02
3.3655208e-02
4.0113715e-02
4.7172996e-02
5.9240410e-02
7.6667748e-02
1.1675483e-01
1.8355931e-01
2.5726323e-01
3.0443068e-01
3.1492291e-01
2.9985337e-01
2.7053568e-01
2.3867598e-01
1.8884572e-01
1.1755421e-01
5.9014821e-02
3.0745267e-02
3.0115640e-02
3.8905850e-02
3.8037713e-02
1.9875103e-02
-1.6546104e-02
-5.2279556e-02
-8.4874505e-02
-1.1953187e-01
-1.3909342e-01
-1.3625228e-01
-1.1617948e-01
-9.0699006e-02
-7.1346218e-02
-7.2317062e-02
-1.0357026e-01
-1.4567380e-01
-1.8476586e-01
-2.1940858e-01
-2.3990702e-01
-2.4224831e-01
-2.3317213e-01
-2.2539121e-01
-2.1918118e-01
-2.1161127e-01
-2.0621706e-01
-1.9887716e-01
-1.8942528e-01
-1.7321675e-01
-1.3708951e-01
-7.5988868e-02
1.1616023e-02
1.1380237e-01
2.1274124e-01
2.9501426e-01
3.5461762e-01
4.0140141e-01
4.2511082e-01
4.1780957e-01
4.0227720e-01
3.9020545e-01
3.7241810e-01
3.2736955e-01
2.5493365e-01
1.7555914e-01
9.6726937e-02
2.7320886e-02
-3.5972030e-02
-9.8453042e-02
-1.4379212e-01
-1.6308580e-01
-1.6051853e-01
-1.5449935e-01
-1.5913980e-01
-1.7602049e-01
-2.0755455e-01
-2.3693985e-01
-2.4828613e-01
-2.4000131e-01
-2.1027393e-01
-1.5990571e-01
-8.9845270e-02
-2.1616274e-02
2.1004145e-02
3.6705508e-02
2.8356413e-02
1.1309507e-02
-7.0613871e-03
-2.5817082e-02
-2.9669097e-02
-1.0933513e-02
3.0230155e-02
8.1412645e-02
1.2674011e-01
1.5289705e-01
1.5092151e-01
1.3823267e-01
1.2028703e-01
9.3357327e-02
7.7411956e-02
8.2144440e-02
1.0251079e-01
1.1902850e-01
1.1242839e-01
8.1280462e-02
2.8396245e-02
-2.8055700e-02
-7.5199374e-02
-1.1171575e-01
-1.3073356e-01
-1.3020468e-01
-1.1229481e-01
-8.7914306e-02
-6.7359849e-02
-6.2641766e-02
-8.4258080e-02
-1.1270511e-01
-1.2946255e-01
-1.3358063e-01
-1.2320507e-01
-9.8907349e-02
-6.1966554e-02
-2.5612242e-02
-4.8895993e-03
-6.9163044e-03
-3.4213835e-02
-6.3598801e-02
-7.5039793e-02
-6.8520483e-02
-4.3267166e-02
-3.0970825e-03
4.7570068e-02
9.9104221e-02
1.4135555e-01
1.6453785e-01
1.4392117e-01
8.5558024e-02
2.7912955e-02
-8.6838100e-03
-1.6949388e-02
5.7901474e-03
5.4432403e-02
1.0234341e-01
1.2712923e-01
1.3002408e-01
1.0181499e-01
5.2258077e-02
1.2560577e-02
-5.8844966e-03
-3.0820894e-03
1.7465477e-02
5.0658008e-02
7.5009023e-02
7.4771606e-02
5.9660530e-02
3.4951351e-02
1.6049997e-02
1.7751472e-02
3.6630154e-02
6.4495991e-02
8.1698616e-02
7.4751341e-02
4.0713474e-02
-1.7766099e-02
-8.0481940e-02
-1.3244665e-01
-1.6906847e-01
-1.8746842e-01
-1.8922390e-01
-1.7566632e-01
-1.5018850e-01
-1.1406860e-01
-7.6510963e-02
-4.8781231e-02
-3.3658774e-02
-3.2761119e-02
-3.4005515e-02
-2.9268700e-02
-1.9993363e-02
2.7336464e-03
4.7054014e-02
1.1145857e-01
1.6863943e-01
1.9360237e-01
1.8843047e-01
1.5218733e-01
1.0165724e-01
5.8029946e-02
2.0963225e-02
-6.8742815e-03
-2.4542054e-02
-3.5380288e-02
-4.8066818e-02
-6.8892308e-02
-9.1045285e-02
-1.1020011e-01
-1.2046102e-01
-1.1718573e-01
-1.0305969e-01
-8.0377957e-02
-5.4982413e-02
-2.8406216e-02
-8.5665374e-03
-7.6746975e-03
-2.2221036e-02
-4.5551095e-02
-6.4205594e-02
-6.7434676e-02
-5.6204742e-02
-3.0496465e-02
7.4282356e-03
5.5496082e-02
1.0122108e-01
1.3176740e-01
1.4385398e-01
1.2910681e-01
9.9977506e-02
7.8036853e-02
6.2453370e-02
4.7936440e-02
3.6369956e-02
3.2678936e-02
3.6416470e-02
4.4265405e-02
4.6371075e-02
2.9355487e-02
3.7119191e-03
-1.2328547e-02
-1.8077155e-02
-1.8067887e-02
-1.5884644e-02
-1.4464950e-02
-1.9788834e-02
-3.4558072e-02
-5.3250509e-02
-7.3582215e-02
-8.9188398e-02
-9.2414283e-02
-8.5474914e-02
-7.2213599e-02
-5.6533923e-02
-4.1517045e-02
-3.1013957e-02
-2.6841569e-02
-2.8998576e-02
-4.2396544e-02
-5.9486176e-02
-6.6432316e-02
-6.3914262e-02
-5.5246248e-02
-3.8119831e-02
-1.1119929e-02
1.6486331e-02
3.7125463e-02
5.2884522e-02
6.4901137e-02
8.3056839e-02
1.1344375e-01
1.5033543e-01
1.8615976e-01
2.1113760e-01
2.2082368e-01
2.1346768e-01
1.8563258e-01
1.3568764e-01
7.2036321e-02
1.3230655e-02
-2.9294854e-02
-5.7292924e-02
-7.4131879e-02
-8.0785621e-02
-7.6560983e-02
-6.7676630e-02
-6.3658535e-02
-7.1701425e-02
-9.8433316e-02
-1.3031583e-01
-1.4998698e-01
-1.5588567e-01
-1.4866958e-01
-1.2847939e-01
-9.6756772e-02
-6.6140007e-02
-4.6651166e-02
-4.1510315e-02
-6.6229563e-02
-1.1350996e-01
-1.5425092e-01
-1.7766196e-01
-1.8381196e-01
-1.7322746e-01
-1.4567637e-01
-1.0486711e-01
-5.5785921e-02
-8.2045861e-03
2.5354365e-02
5.8420411e-02
1.1026551e-01
1.7579861e-01
2.3777495e-01
2.7426938e-01
2.8138129e-01
2.7466811e-01
2.6457493e-01
2.4889010e-01
2.1230459e-01
1.6429330e-01
1.2969308e-01
1.0746038e-01
8.3001904e-02
4.1036857e-02
-1.2856076e-02
-6.3800638e-02
-1.1045534e-01
-1.5981310e-01
-2.2648619e-01
-2.9875057e-01
-3.4749922e-01
-3.6672154e-01
-3.6329650e-01
-3.4565277e-01
-3.1412799e-01
-2.6867105e-01
-2.1453990e-01
-1.5534702e-01
-1.0242716e-01
-5.3905518e-02
5.2534106e-03
7.5192007e-02
1.4900121e-01
2.1560573e-01
2.6823769e-01
3.0734901e-01
3.4098912e-01
3.7794369e-01
3.9910308e-01
4.0220004e-01
4.1612660e-01
4.4710151e-01
4.7914676e-01
4.9092627e-01
4.6395179e-01
3.9127727e-01
2.9088692e-01
1.8845900e-01
9.0561356e-02
1.0196373e-02
-4.1638731e-02
-7.8119309e-02
-1.1429044e-01
-1.5036904e-01
-1.7425220e-01
-1.8811085e-01
-2.0377696e-01
-2.2253993e-01
-2.4580327e-01
-2.6668160e-01
-2.7410843e-01
-2.6659940e-01
-2.4758038e-01
-2.2572245e-01
-2.0497252e-01
-1.8861477e-01
-1.8189658e-01
-1.8086890e-01
-1.8264307e-01
-1.8293312e-01
-1.7503928e-01
-1.5697506e-01
-1.2887341e-01
-9.2119290e-02
-4.4996778e-02
1.4826130e-03
3.3714542e-02
4.6923994e-02
3.0906750e-02
-9.2434355e-04
-2.2490981e-02
-2.5773493e-02
-8.1147007e-03
2.9596384e-02
8.4971686e-02
1.4395021e-01
1.9092828e-01
2.1647534e-01
1.9795362e-01
1.4327516e-01
9.1238298e-02
5.4749040e-02
2.6812403e-02
-2.3865835e-03
-3.4428861e-02
-6.1530663e-02
-8.1323956e-02
-9.5410435e-02
-1.0693749e-01
-1.1160681e-01
-1.0081122e-01
-7.6645211e-02
-4.7161119e-02
-2.7959086e-02
-2.4804525e-02
-2.1285342e-02
-6.9518057e-03
9.4677939e-03
1.6573383e-02
2.4001157e-02
4.6980796e-02
8.3548304e-02
1.1762030e-01
1.2195272e-01
8.9823841e-02
4.7254604e-02
1.3195746e-02
-1.5304862e-02
-4.7528940e-02
-8.0039030e-02
-9.9535111e-02
-1.0273703e-01
-9.3803847e-02
-7.6960042e-02
-4.8855839e-02
-1.0882481e-02
2.8298667e-02
5.9578950e-02
5.6459453e-02
1.9496976e-02
-1.2055837e-02
-1.9500217e-02
-3.8832493e-03
3.1878991e-02
8.7744949e-02
1.4929685e-01
1.9395356e-01
2.1724319e-01
2.0626371e-01
1.6754167e-01
1.3712905e-01
1.2509958e-01
1.1822025e-01
9.6050806e-02
5.4844297e-02
1.0185259e-02
-3.2110123e-02
-6.8059888e-02
-9.8612977e-02
-1.2363860e-01
-1.3408650e-01
-1.2954765e-01
-1.1375136e-01
-9.0587373e-02
-6.1974945e-02
-3.6342531e-02
-2.3666562e-02
-2.3775755e-02
-4.1510302e-02
-6.7808468e-02
-8.4423964e-02
-9.0712720e-02
-8.9045595e-02
-7.9920622e-02
-6.7213889e-02
-5.7220211e-02
-5.2324433e-02
-5.0542237e-02
-4.8599408e-02
-3.6980512e-02
-9.8642594e-03
2.4734096e-02
5.7853325e-02
8.0007185e-02
8.8582679e-02
8.8880271e-02
8.1466869e-02
7.0703794e-02
5.8130484e-02
5.1366901e-02
6.3719317e-02
9.3304926e-02
1.2693117e-01
1.4540355e-01
1.4814228e-01
1.4581058e-01
1.3753804e-01
1.1601432e-01
5.8680923e-02
-2.9279805e-02
-1.1081422e-01
-1.7062787e-01
-2.0802329e-01
-2.2550505e-01
-2.2650564e-01
-2.1121179e-01
-1.8047412e-01
-1.4522812e-01
-1.2819223e-01
-1.3168844e-01
-1.3327035e-01
-1.2248334e-01
-1.0206008e-01
-8.2039851e-02
-6.9916507e-02
-6.2932185e-02
-5.8558032e-02
-5.4895460e-02
-5.6224252e-02
-5.6417346e-02
-3.7543167e-02
5.5160912e-03
6.9783466e-02
1.4473596e-01
2.2052639e-01
2.8553615e-01
3.2820423e-01
3.4962603e-01
3.3306165e-01
2.8151683e-01
2.3677530e-01
2.1570438e-01
2.0843836e-01
1.9175198e-01
1.5638948e-01
1.1066268e-01
5.3556230e-02
-1.1788002e-03
-3.9027895e-02
-5.8447970e-02
-5.7191798e-02
-3.9256465e-02
-1.4717180e-02
-5.6560009e-04
-1.0309403e-03
-1.1345687e-02
-3.4401061e-02
-6.2108324e-02
-8.6832448e-02
-1.0548283e-01
-1.1255368e-01
-1.1052250e-01
-1.0532355e-01
-1.0031418e-01
-9.3678416e-02
-8.5556606e-02
-8.0288387e-02
-8.2708829e-02
-9.8043392e-02
-1.1888451e-01
-1.3215635e-01
-1.3470019e-01
-1.2746172e-01
-1.1162345e-01
-8.7553978e-02
-5.6730142e-02
-2.2392196e-02
8.6703664e-03
2.6141457e-02
3.2810784e-02
4.3229506e-02
6.1661183e-02
8.0408220e-02
8.3835727e-02
6.6835829e-02
3.9973774e-02
9.9476450e-03
-1.6311138e-02
-3.6652236e-02
-5.1618811e-02
-5.6839326e-02
-5.2249813e-02
-3.9594003e-02
-2.5007495e-02
-1.3373149e-02
-3.8500660e-03
2.4991786e-03
4.1640591e-03
-7.0864239e-03
-2.9995447e-02
-4.6346438e-02
-4.7459456e-02
-3.5374283e-02
-1.4043039e-02
1.5662535e-02
5.2152459e-02
9.0815602e-02
1.1665129e-01
9.7173388e-02
3.3958105e-02
-3.2002190e-02
-8.0103885e-02
-1.1036742e-01
-1.2917294e-01
-1.4191917e-01
-1.4414423e-01
-1.3305649e-01
-1.1513502e-01
-9.8332737e-02
-7.2873129e-02
-2.4020354e-02
4.5391993e-02
1.1845693e-01
1.6520007e-01
1.7926491e-01
1.7733990e-01
1.6285735e-01
1.4311643e-01
1.2609909e-01
1.2336883e-01
1.4661162e-01
1.8913728e-01
2.3202762e-01
2.4606048e-01
2.2410520e-01
1.7907082e-01
1.1469129e-01
4.4068095e-02
-2.2972888e-02
-8.2685080e-02
-1.2498691e-01
-1.4950496e-01
-1.5986429e-01
-1.6074824e-01
-1.5520358e-01
-1.5005069e-01
-1.5524435e-01
-1.7531577e-01
-2.1421537e-01
-2.5538031e-01
-2.7864566e-01
-2.8075476e-01
-2.5996889e-01
-2.1482739e-01
-1.4410014e-01
-6.0972385e-02
2.0470243e-02
9.1437310e-02
1.3731945e-01
1.7292887e-01
2.2134848e-01
2.7390846e-01
3.0929713e-01
3.1222842e-01
2.9242238e-01
2.5972317e-01
2.0921708e-01
1.4776222e-01
8.2626826e-02
2.8361782e-02
-1.0570159e-03
-1.0370539e-02
-7.8957150e-03
-8.0887105e-04
9.0222575e-03
1.4646233e-02
1.0133426e-02
5.2864496e-04
-1.6762122e-02
-3.8579719e-02
-5.5085429e-02
-6.5136573e-02
-6.8212809e-02
-6.7366087e-02
-6.5291694e-02
-6.1161270e-02
-6.0351770e-02
-7.4282164e-02
-1.0639423e-01
-1.4187925e-01
-1.6680128e-01
-1.8054013e-01
-1.8340942e-01
-1.7473466e-01
-1.5406317e-01
-1.2464338e-01
-9.0304492e-02
-5.7627133e-02
-3.2420272e-02
-5.6563989e-04
4.7014267e-02
1.0328826e-01
1.6145006e-01
2.1785827e-01
2.7280302e-01
3.0957368e-01
3.1787701e-01
3.0164882e-01
2.5149294e-01
1.8325694e-01
1.2274854e-01
7.4684945e-02
4.3784209e-02
2.9982162e-02
2.8875589e-02
2.3419665e-02
-2.5309016e-03
-4.4900259e-02
-9.8993054e-02
-1.5183051e-01
-1.9081947e-01
-2.1573468e-01
-2.2872652e-01
-2.3338708e-01
-2.2909615e-01
-2.1650036e-01
-1.9935563e-01
-1.8439008e-01
-1.7566436e-01
-1.6479059e-01
-1.4592450e-01
-1.2113901e-01
-9.1652873e-02
-6.3136813e-02
-4.1042141e-02
-2.8701878e-02
-2.7106130e-02
-2.4805257e-02
-1.1729077e-02
1.8067527e-02
6.8911190e-02
1.3586499e-01
2.1094023e-01
2.8438412e-01
3.4283735e-01
3.6461637e-01
3.4676912e-01
3.0291778e-01
2.3417136e-01
1.5864826e-01
9.3725405e-02
3.9896791e-02
2.4283641e-03
-1.5757890e-02
-1.3161634e-02
-2.0726350e-03
-4.0896701e-04
-1.9718922e-02
-6.5589880e-02
-1.1703129e-01
-1.5601910e-01
-1.8148687e-01
-1.9039736e-01
-1.8418443e-01
-1.6324900e-01
-1.3713649e-01
-1.1910778e-01
-1.1940709e-01
-1.4571037e-01
-1.7812225e-01
-1.9717965e-01
-2.0073662e-01
-1.8632904e-01
-1.5476422e-01
-1.0589325e-01
-5.0017080e-02
4.6915106e-04
4.1554356e-02
6.7838096e-02
9.2567312e-02
1.2980450e-01
1.7923149e-01
2.3911398e-01
2.9918369e-01
3.4536586e-01
3.5786292e-01
3.3278016e-01
2.8877855e-01
2.3546804e-01
1.7706978e-01
1.0964305e-01
3.5960231e-02
-2.3113141e-02
-5.8279809e-02
-7.2818113e-02
-7.3930637e-02
-6.5729960e-02
-6.1084492e-02
-7.7720905e-02
-1.0862361e-01
-1.4071096e-01
-1.6363209e-01
-1.6578830e-01
-1.4534029e-01
-1.0852252e-01
-7.6407046e-02
-6.3183478e-02
-6.9081678e-02
-9.5741593e-02
-1.2792781e-01
-1.5281454e-01
-1.6732227e-01
-1.6451566e-01
-1.4294078e-01
-1.0285858e-01
-6.0423020e-02
-3.3008980e-02
-2.4193544e-02
-3.5431503e-02
-5.1389793e-02
-6.0856086e-02
-5.7902905e-02
-2.9786147e-02
2.7754858e-02
1.0922882e-01
1.8786203e-01
2.4228708e-01
2.6969591e-01
2.7164148e-01
2.6100806e-01
2.2826631e-01
1.6958128e-01
1.2076703e-01
1.0397021e-01
1.1662616e-01
1.3178045e-01
1.2687563e-01
1.0507359e-01
6.9292358e-02
3.5245126e-02
2.4956164e-03
-3.9369554e-02
-7.1277678e-02
-7.9759501e-02
-6.9618926e-02
-5.7411126e-02
-5.4830347e-02
-7.1227596e-02
-1.1400734e-01
-1.5978830e-01
-1.9046290e-01
-2.0658726e-01
-2.0344926e-01
-1.8035339e-01
-1.4134575e-01
-1.0289391e-01
-7.8494913e-02
-7.3207808e-02
-9.1285155e-02
-1.1342122e-01
-1.2499661e-01
-1.2251538e-01
-9.4195821e-02
-3.6998788e-02
3.9606467e-02
1.1088046e-01
1.6038719e-01
1.8560845e-01
1.8731141e-01
1.7650117e-01
1.4301044e-01
8.7231330e-02
4.6794411e-02
4.1337321e-02
6.2254712e-02
8.9354658e-02
1.1432456e-01
1.3329346e-01
1.4075861e-01
1.4421978e-01
1.2924536e-01
8.7853869e-02
4.4575111e-02
1.5192140e-02
-3.7174268e-03
-3.0657925e-02
-6.7048646e-02
-9.4541405e-02
-1.0428270e-01
-1.0509114e-01
-1.2341616e-01
-1.5888565e-01
-1.7829975e-01
-1.6593186e-01
-1.3613586e-01
-1.1075399e-01
-8.8538071e-02
-7.0670090e-02
-6.3589209e-02
-5.9242010e-02
-7.2501698e-02
-1.0471040e-01
-1.1931693e-01
-9.7077490e-02
-4.5181125e-02
9.1080383e-03
4.5029276e-02
6.0395417e-02
6.0913490e-02
5.8573082e-02
3.9173931e-02
-1.4040301e-03
-2.7640379e-02
-1.5803601e-02
2.3488774e-02
5.7020801e-02
7.0600262e-02
6.6751903e-02
4.9429873e-02
3.2720284e-02
2.6346017e-03
-5.0585695e-02
-9.5513393e-02
-1.0740878e-01
-8.2504699e-02
-3.2943931e-02
1.8896264e-02
5.1027728e-02
6.1207165e-02
6.2135407e-02
4.5054202e-02
9.7249678e-03
-1.2057962e-02
7.3829665e-03
6.6162497e-02
1.3205445e-01
1.7897227e-01
2.0169849e-01
2.1078152e-01
2.1853538e-01
2.0998046e-01
1.7155925e-01
1.1806563e-01
8.0838535e-02
8.0888367e-02
1.0887645e-01
1.5147194e-01
1.9448081e-01
2.2961124e-01
2.5797282e-01
2.5636726e-01
2.0739754e-01
1.2649697e-01
4.5453188e-02
-1.5390609e-02
-5.5979257e-02
-7.0201203e-02
-6.5021064e-02
-5.4856996e-02
-4.5240794e-02
-6.4974517e-02
-1.2232344e-01
-1.7994300e-01
-2.1331050e-01
-2.2331370e-01
-2.1553742e-01
-1.9410897e-01
-1.8011151e-01
-1.8858337e-01
-2.0353343e-01
-2.1754398e-01
-2.2627647e-01
-2.1758349e-01
-1.8932248e-01
-1.5228421e-01
-1.1862498e-01
-8.7289449e-02
-7.3966921e-02
-9.0786550e-02
-1.1443971e-01
-1.3272314e-01
-1.4163266e-01
-1.2984281e-01
-9.3950402e-02
-5.4291602e-02
-3.7322303e-02
-2.7668226e-02
1.2050654e-03
5.4753736e-02
1.1418246e-01
1.3695577e-01
1.1680172e-01
9.5939231e-02
1.0594701e-01
1.3949099e-01
1.8145797e-01
2.2652964e-01
2.4799170e-01
2.3878141e-01
2.1953680e-01
1.7573169e-01
1.0489465e-01
4.4892189e-02
1.9717826e-02
2.0949244e-02
3.3737900e-02
5.2322871e-02
5.5898778e-02
4.0140103e-02
1.8842359e-02
-2.9702009e-02
-1.0862522e-01
-1.7662571e-01
-2.0758606e-01
-2.0574990e-01
-1.7995626e-01
-1.4184959e-01
-1.2270228e-01
-1.2882491e-01
-1.4043602e-01
-1.6968124e-01
-2.1700318e-01
-2.4563008e-01
-2.3275092e-01
-1.8544102e-01
-1.1607495e-01
-3.1268206e-02
4.4566300e-02
9.7379755e-02
1.3553835e-01
1.4735635e-01
1.3126389e-01
1.1981606e-01
1.4363999e-01
2.0225962e-01
2.7630110e-01
3.4972345e-01
4.0253473e-01
4.2749924e-01
4.2795903e-01
3.9329718e-01
3.2010064e-01
2.3061659e-01
1.5944348e-01
1.1703658e-01
9.5684005e-02
9.2100337e-02
8.1330089e-02
4.8664002e-02
1.0311332e-03
-7.7139142e-02
-1.8406627e-01
-2.8275474e-01
-3.4819205e-01
-3.8030167e-01
-3.8508303e-01
-3.6124209e-01
-3.1319035e-01
-2.4857106e-01
-1.8324450e-01
-1.5266011e-01
-1.5504724e-01
-1.4686016e-01
-1.0510574e-01
-4.6402860e-02
1.0079035e-02
6.6919398e-02
1.1674175e-01
1.5276964e-01
1.7317037e-01
1.6296079e-01
1.2753173e-01
9.8610321e-02
9.4486983e-02
9.7068836e-02
9.1465063e-02
9.1907380e-02
1.0352016e-01
1.1712903e-01
1.1816466e-01
9.4560520e-02
4.8676595e-02
-1.7538613e-03
-3.3890302e-02
-4.5710727e-02
-4.8502392e-02
-3.9910507e-02
-1.0615513e-02
3.7639014e-02
8.3295616e-02
9.2901545e-02
6.3536330e-02
2.5537100e-02
-6.2351187e-04
-1.6391464e-02
-2.7952680e-02
-3.9132785e-02
-5.7053422e-02
-7.9929673e-02
-1.0317923e-01
-1.3282706e-01
-1.6908653e-01
-2.0314828e-01
-2.2878976e-01
-2.4580895e-01
-2.5485115e-01
-2.5369277e-01
-2.3981931e-01
-2.1041063e-01
-1.7136879e-01
-1.3749012e-01
-1.0697140e-01
-6.3084473e-02
4.7429420e-03
9.1284690e-02
1.8880048e-01
2.8860095e-01
3.6210794e-01
3.8774178e-01
3.7364257e-01
3.3821003e-01
2.9310495e-01
2.4709645e-01
2.0993786e-01
1.7723195e-01
1.4093655e-01
1.1214956e-01
9.7950507e-02
7.9627622e-02
3.7813784e-02
-1.8644829e-02
-7.2161780e-02
-1.1590424e-01
-1.4672029e-01
-1.6752106e-01
-1.8275542e-01
-1.9305126e-01
-1.9984488e-01
-2.0412107e-01
-2.0805422e-01
-2.1160527e-01
-2.0931130e-01
-1.9837859e-01
-1.7809964e-01
-1.5850751e-01
-1.4911961e-01
-1.4047703e-01
-1.2249026e-01
-1.0395186e-01
-1.0858515e-01
-1.3985548e-01
-1.7647561e-01
-2.0066242e-01
-2.0643744e-01
-1.9628361e-01
-1.7005184e-01
-1.2068812e-01
-4.2596858e-02
6.5981060e-02
1.8247964e-01
2.6225640e-01
2.9353402e-01
3.0439224e-01
3.2111361e-01
3.3275142e-01
3.2670470e-01
3.2382122e-01
3.4019210e-01
3.8331213e-01
4.3925402e-01
4.7554526e-01
4.7841884e-01
4.4261301e-01
3.7003450e-01
2.6305152e-01
1.3098930e-01
5.4526744e-03
-9.2958853e-02
-1.6071849e-01
-2.0778272e-01
-2.4944423e-01
-2.8392936e-01
-3.0669769e-01
-3.1824133e-01
-3.2419262e-01
-3.2947646e-01
-3.2650950e-01
-3.0895883e-01
-2.8112686e-01
-2.5480806e-01
-2.3340465e-01
-2.0595198e-01
-1.6729667e-01
-1.1937981e-01
-6.8197551e-02
-1.9379703e-02
2.5151121e-02
6.3807869e-02
1.0294765e-01
1.4150737e-01
1.7184839e-01
1.9731262e-01
2.1533814e-01
2.1673208e-01
1.9849036e-01
1.6702580e-01
1.3238896e-01
9.8733205e-02
7.3519983e-02
5.9809275e-02
5.3296291e-02
5.3102312e-02
5.1395790e-02
3.5980613e-02
5.7166381e-03
-2.8099188e-02
-5.5152422e-02
-7.3839106e-02
-8.9143886e-02
-1.0631185e-01
-1.1972366e-01
-1.2150090e-01
-1.1278686e-01
-1.0082306e-01
-9.6457610e-02
-1.0131734e-01
-1.0842615e-01
-1.1453552e-01
-1.1614366e-01
-1.1168536e-01
-1.0107074e-01
-8.2448597e-02
-5.6710527e-02
-2.6131818e-02
1.1740178e-03
1.9503455e-02
3.7387244e-02
6.3154550e-02
9.2205416e-02
1.1196354e-01
1.2121161e-01
1.2807613e-01
1.3241616e-01
1.3264758e-01
1.2416986e-01
1.0604506e-01
8.8180089e-02
7.4224779e-02
6.3203515e-02
5.3870052e-02
4.8613835e-02
5.2586609e-02
6.0534131e-02
5.6963019e-02
3.2080758e-02
-4.5455111e-03
-3.9085539e-02
-6.8426049e-02
-8.9760215e-02
-9.9737586e-02
-9.8519178e-02
-8.7370953e-02
-6.9305200e-02
-4.7875065e-02
-2.9371193e-02
-1.6772848e-02
-1.0347120e-02
-1.2274705e-02
-1.7842129e-02
-2.3326802e-02
-2.6741980e-02
-2.4163797e-02
-1.6607361e-02
-6.0770484e-03
5.5035704e-03
1.7461558e-02
2.8415616e-02
3.7792410e-02
4.9263079e-02
5.9277766e-02
6.2028319e-02
5.4674417e-02
3.5228370e-02
9.3403960e-03
-1.7382121e-02
-4.3529848e-02
-6.7706738e-02
-8.6896983e-02
-9.9471988e-02
-1.0723845e-01
-1.0769088e-01
-9.8013249e-02
-8.1947385e-02
-6.8103746e-02
-6.1726027e-02
-5.8553766e-02
-5.4794760e-02
-4.9675361e-02
-4.3199690e-02
-3.9380544e-02
-4.1278489e-02
-4.7567178e-02
-5.7288908e-02
-7.8610253e-02
-1.1833401e-01
-1.6575433e-01
-2.1452713e-01
-2.6543375e-01
-3.1324603e-01
-3.5715134e-01
-3.9408214e-01
-4.1808590e-01
-4.2777448e-01
-4.2977790e-01
-4.3049472e-01
-4.1856927e-01
-3.8206953e-01
-3.1640562e-01
-2.2378544e-01
