7.6775149e-03
1.4491622e-02
2.0926448e-02
2.6724839e-02
3.0851111e-02
3.3055886e-02
3.2380011e-02
2.7673178e-02
1.8807281e-02
6.2935098e-03
-6.9647620e-03
-1.7907413e-02
-2.4485620e-02
-2.5412005e-02
-2.1270244e-02
-1.2914486e-02
-1.9642507e-03
9.6819884e-03
2.0783884e-02
3.0473977e-02
3.8472775e-02
4.3354611e-02
4.3166234e-02
3.6123235e-02
2.2340825e-02
5.4901162e-03
-9.7072268e-03
-1.8847993e-02
-1.9870773e-02
-1.2258645e-02
3.1951781e-03
2.0586985e-02
3.2746124e-02
3.5801470e-02
2.9788058e-02
1.8336158e-02
5.0720439e-03
-6.6160113e-03
-1.3496378e-02
-1.4146617e-02
-8.4964565e-03
1.3143154e-03
1.1915681e-02
2.0073659e-02
2.3690878e-02
2.2602133e-02
1.7140371e-02
8.1490680e-03
-3.2446267e-03
-1.5021605e-02
-2.3777504e-02
-2.7609519e-02
-2.6500600e-02
-2.2132908e-02
-1.7195255e-02
-1.3984324e-02
-1.5143519e-02
-2.1308937e-02
-3.1570847e-02
-4.4945237e-02
-5.9603523e-02
-7.3699149e-02
-8.4780630e-02
-9.2489937e-02
-9.8347761e-02
-1.0146763e-01
-1.0016170e-01
-9.3009856e-02
-8.0216798e-02
-6.3219507e-02
-4.3344076e-02
-2.4014470e-02
-8.0989533e-03
3.4872171e-03
1.2682306e-02
2.2973022e-02
3.3704481e-02
4.2124885e-02
4.5891242e-02
4.4137187e-02
3.8249217e-02
2.9669179e-02
1.9814692e-02
9.4976815e-03
-3.0073680e-04
-8.8711546e-03
-1.6623869e-02
-2.2286848e-02
-2.5738016e-02
-2.7625563e-02
-2.7117054e-02
-2.4890520e-02
-2.1187044e-02
-1.5641692e-02
-8.7508736e-03
-2.5207283e-03
-6.0624389e-04
-4.5065899e-03
-1.2830561e-02
-2.1655846e-02
-2.7664094e-02
-3.0603666e-02
-3.0155487e-02
-2.7082178e-02
-2.2637370e-02
-1.7106799e-02
-1.1468251e-02
-6.2392168e-03
-1.5109285e-03
3.3582096e-03
8.6429920e-03
1.3548529e-02
1.9225646e-02
2.5841194e-02
3.1351742e-02
3.4315468e-02
3.2795543e-02
2.5468972e-02
1.2625813e-02
-3.6447032e-03
-2.0486613e-02
-3.5993980e-02
-4.8206638e-02
-5.6919682e-02
-6.3408417e-02
-6.8390573e-02
-7.1563687e-02
-7.2157933e-02
-7.0108419e-02
-6.4425070e-02
-5.4597059e-02
-4.2343033e-02
-2.9560458e-02
-1.7494152e-02
-5.3310470e-03
7.6406378e-03
2.0043631e-02
3.1561646e-02
4.1538366e-02
4.8912808e-02
5.4212455e-02
5.8293490e-02
6.1517775e-02
6.3816638e-02
6.6107186e-02
6.8879925e-02
7.0729950e-02
7.0076722e-02
6.5514763e-02
5.7144482e-02
4.6890957e-02
3.7955693e-02
3.2517064e-02
2.9034486e-02
2.7235241e-02
2.7965821e-02
2.9935945e-02
3.1919487e-02
3.2906610e-02
3.3614095e-02
3.4598458e-02
3.4743026e-02
3.4298647e-02
3.3352326e-02
3.2265167e-02
3.2131732e-02
3.2808048e-02
3.3802452e-02
3.4965959e-02
3.6500850e-02
3.7462611e-02
3.7068691e-02
3.6114184e-02
3.3153173e-02
2.6204463e-02
1.6307733e-02
6.2104611e-03
-2.4638983e-03
-1.0225774e-02
-1.7150248e-02
-2.3483901e-02
-2.9233910e-02
-3.4130389e-02
-3.9618508e-02
-4.5314542e-02
-4.9987141e-02
-5.3794581e-02
-5.6901677e-02
-6.0138679e-02
-6.3714360e-02
-6.7209634e-02
-6.9771191e-02
-7.1388546e-02
-7.3698316e-02
-7.6168228e-02
-7.7407065e-02
-7.6110368e-02
-7.0488075e-02
-6.0239683e-02
-4.5055990e-02
-2.6873072e-02
-9.9938913e-03
3.4004696e-03
1.2207905e-02
1.7635131e-02
2.2956542e-02
2.9601578e-02
3.6474923e-02
4.2432130e-02
4.8566127e-02
5.4536097e-02
5.8351292e-02
6.0301178e-02
6.1088599e-02
6.0226158e-02
5.7024188e-02
5.2199077e-02
4.7170087e-02
4.2002913e-02
3.6897180e-02
3.2572373e-02
2.9655874e-02
2.6750715e-02
2.1120714e-02
1.2393505e-02
2.1691640e-03
-6.3830474e-03
-1.2016824e-02
-1.6283744e-02
-1.8770867e-02
-1.8889854e-02
-1.7304975e-02
-1.4547261e-02
-1.1993621e-02
-1.0898195e-02
-1.0883598e-02
-9.7650090e-03
-7.1195973e-03
-4.6202523e-03
-2.4113689e-03
-1.1832446e-03
-1.0930595e-03
-1.4423862e-03
-1.9295627e-03
-1.5502374e-03
-8.5763892e-04
-2.1166131e-04
5.7198031e-04
6.4902373e-04
4.6818163e-04
1.4469320e-03
4.7578196e-03
9.1251180e-03
1.2872488e-02
1.6912216e-02
2.0873441e-02
2.4186950e-02
2.7104814e-02
2.9769787e-02
3.2899387e-02
3.5669028e-02
3.7715862e-02
3.9398321e-02
4.0829362e-02
4.2471714e-02
4.3180493e-02
4.2647171e-02
4.0806149e-02
3.6313968e-02
3.0131948e-02
2.4020568e-02
1.8779241e-02
1.4637277e-02
1.0620338e-02
5.2999210e-03
-8.9987884e-04
-5.0336270e-03
-6.9012590e-03
-9.0615930e-03
-1.1911858e-02
-1.4768845e-02
-1.6199318e-02
-1.5532082e-02
-1.3674916e-02
-1.1306716e-02
-9.9867272e-03
-9.9383352e-03
-1.0924076e-02
-1.4563058e-02
-2.1217242e-02
-3.0024756e-02
-3.9273032e-02
-4.7036764e-02
-5.2367665e-02
-5.5014834e-02
-5.5553756e-02
-5.4363833e-02
-5.1478933e-02
-4.5414830e-02
-3.4810905e-02
-2.2415173e-02
-1.2464641e-02
-7.0775506e-03
-5.0246397e-03
-3.8383085e-03
-3.3917149e-03
-3.6176833e-03
-4.3839574e-03
-6.0867164e-03
-6.9998915e-03
-6.0733291e-03
-4.2093642e-03
-2.5335145e-03
-1.2274259e-03
-3.8411108e-04
-7.6602037e-04
-2.2588721e-03
-5.2350500e-03
-8.6021058e-03
-1.0420512e-02
-1.2011697e-02
-1.5361610e-02
-2.1250095e-02
-2.9411621e-02
-3.9958195e-02
-5.0294627e-02
-5.3557087e-02
-4.7710232e-02
-3.4335573e-02
-1.5073711e-02
6.8830779e-03
2.9351673e-02
5.0202680e-02
6.9519780e-02
8.9326833e-02
1.0942700e-01
1.2868277e-01
1.4546377e-01
1.5963469e-01
1.7204288e-01
1.8245567e-01
1.9104627e-01
1.9719377e-01
2.0043236e-01
2.0033082e-01
1.9506978e-01
1.8393664e-01
1.6553540e-01
1.3714401e-01
9.3699351e-02
3.7924038e-02
-1.4092218e-02
-5.5250277e-02
-8.8139037e-02
-1.1312004e-01
-1.3093480e-01
-1.4310906e-01
-1.5085831e-01
-1.5372178e-01
-1.5196497e-01
-1.4745792e-01
-1.4142735e-01
-1.3476711e-01
-1.2692545e-01
-1.1790482e-01
-1.0908398e-01
-1.0081920e-01
-9.3616454e-02
-8.6851620e-02
-7.9621743e-02
-7.2025681e-02
-6.2979585e-02
-5.2463816e-02
-4.1263713e-02
-2.9144909e-02
-1.7300054e-02
-7.9779984e-03
-2.4527119e-03
3.7852730e-04
1.5228183e-03
-1.7612269e-04
-4.0685555e-03
-8.8432688e-03
-1.3812244e-02
-1.8412363e-02
-2.2962056e-02
-2.7379903e-02
-3.2151889e-02
-3.6868965e-02
-4.0275929e-02
-4.2240345e-02
-4.2643751e-02
-4.2269962e-02
-4.1492871e-02
-3.9332372e-02
-3.5012784e-02
-2.7741137e-02
-1.6768678e-02
-3.9025665e-04
2.2714346e-02
4.8377226e-02
6.8289332e-02
7.8595219e-02
8.1551531e-02
7.9422458e-02
7.3699648e-02
6.5661126e-02
5.5190439e-02
4.2897944e-02
2.9693346e-02
1.6619151e-02
5.2326092e-03
-4.3315020e-03
-1.2791600e-02
-2.0958648e-02
-2.8593632e-02
-3.4798421e-02
-3.9583028e-02
-4.2625322e-02
-4.3830383e-02
-4.2952470e-02
-3.9364273e-02
-3.3797311e-02
-2.6322326e-02
-1.5813191e-02
-2.4852628e-03
1.0635535e-02
2.0644428e-02
2.7917527e-02
3.2845259e-02
3.5153755e-02
3.5628176e-02
3.4899233e-02
3.3169248e-02
2.9588892e-02
2.4030127e-02
1.7697402e-02
1.1098698e-02
4.4457392e-03
-3.5355898e-03
-1.3081802e-02
-2.2259831e-02
-3.0597261e-02
-3.8016438e-02
-4.4913859e-02
-5.1178719e-02
-5.5757795e-02
-5.8472385e-02
-5.8369558e-02
-5.4624650e-02
-4.7914652e-02
-4.0094037e-02
-3.2277944e-02
-2.3661166e-02
-1.4812505e-02
-6.6096566e-03
1.3866135e-03
8.9082882e-03
1.5985519e-02
2.2314641e-02
2.7781903e-02
3.3110853e-02
3.8240597e-02
4.2700458e-02
4.5322220e-02
4.6142326e-02
4.6222345e-02
4.6038483e-02
4.5700015e-02
4.4238367e-02
4.1782521e-02
3.9361410e-02
3.7157012e-02
3.5618123e-02
3.5307874e-02
3.6495046e-02
3.8152545e-02
3.9486963e-02
4.1197200e-02
4.3062908e-02
4.5362946e-02
4.8174135e-02
5.0407486e-02
5.1662193e-02
5.1083786e-02
4.8889531e-02
4.6059059e-02
4.3131389e-02
4.0626080e-02
3.7692051e-02
3.4601552e-02
3.1969175e-02
2.9566005e-02
2.8295989e-02
2.7966057e-02
2.7556888e-02
2.5720583e-02
2.1043477e-02
1.3628417e-02
3.4579735e-03
-8.0075771e-03
-1.8251734e-02
-2.6246035e-02
-3.1361169e-02
-3.4269252e-02
-3.5718446e-02
-3.5233352e-02
-3.2161048e-02
-2.6674475e-02
-2.0313895e-02
-1.3747083e-02
-8.4499369e-03
-6.0397449e-03
-4.7279424e-03
-2.7674211e-03
3.1654280e-04
3.8862344e-03
7.7375999e-03
1.2382867e-02
1.6253945e-02
1.8824110e-02
2.0030212e-02
1.8651220e-02
1.3564302e-02
3.0599439e-03
-9.9091357e-03
-1.8951693e-02
-2.1549619e-02
-1.8539635e-02
-1.3026685e-02
-7.9597750e-03
-5.2330847e-03
-5.5055298e-03
-8.0847557e-03
-1.3450798e-02
-2.1391330e-02
-3.1334845e-02
-4.3017490e-02
-5.4483100e-02
-6.4336514e-02
-7.1897551e-02
-7.6811003e-02
-7.8780173e-02
-7.7084730e-02
-7.2318150e-02
-6.4405098e-02
-5.3325592e-02
-3.9828633e-02
-2.3783737e-02
-5.7330118e-03
1.2806973e-02
2.9584473e-02
4.3969259e-02
5.6792754e-02
6.7711131e-02
7.7223656e-02
8.5731455e-02
9.2980749e-02
9.9709820e-02
1.0660279e-01
1.1409188e-01
1.2138802e-01
1.2856487e-01
1.3655022e-01
1.4410747e-01
1.4924469e-01
1.4999001e-01
1.4624248e-01
1.3866434e-01
1.2747067e-01
1.1398977e-01
9.8561263e-02
8.1719630e-02
6.3866046e-02
4.3572616e-02
2.2156986e-02
2.7704093e-03
-1.3416199e-02
-2.6272114e-02
-3.5482100e-02
-4.1664666e-02
-4.7202366e-02
-5.2538605e-02
-5.7966817e-02
-6.5209088e-02
-7.4162663e-02
-8.5378949e-02
-9.9291099e-02
-1.1427673e-01
-1.2808604e-01
-1.3866188e-01
-1.4519884e-01
-1.4659095e-01
-1.4188850e-01
-1.3146879e-01
-1.1690189e-01
-1.0127576e-01
-8.5473077e-02
-6.7866272e-02
-4.6846936e-02
-2.4439292e-02
-6.1216406e-03
7.3413413e-03
1.7637849e-02
2.4629920e-02
2.6999538e-02
2.2059161e-02
9.9653436e-03
-6.3489637e-03
-2.3942167e-02
-4.0722327e-02
-5.6448771e-02
-7.0109554e-02
-7.9910460e-02
-8.5215894e-02
-8.7267330e-02
-8.8112495e-02
-8.7451733e-02
-8.4882133e-02
-8.0629966e-02
-7.4679094e-02
-6.7860532e-02
-5.9624790e-02
-4.7743818e-02
-2.9128588e-02
-6.2389820e-03
1.1830942e-02
2.2010200e-02
2.6600892e-02
2.7772201e-02
2.7726024e-02
2.7906868e-02
3.0133661e-02
3.4409220e-02
3.9715532e-02
4.5422936e-02
5.0216615e-02
5.3767321e-02
5.5751281e-02
5.6119765e-02
5.5557299e-02
5.4839296e-02
5.5254741e-02
5.6195662e-02
5.5477589e-02
5.0816068e-02
4.1906480e-02
3.0902031e-02
1.7581505e-02
1.3836221e-03
-1.5214503e-02
-2.9167446e-02
-3.8842543e-02
-4.5333396e-02
-4.9209591e-02
-4.9402357e-02
-4.7432131e-02
-4.5471769e-02
-4.4021757e-02
-4.2320038e-02
-4.0265649e-02
-3.8762310e-02
-3.6527990e-02
-3.2651521e-02
-2.7174824e-02
-1.9853219e-02
-1.1155651e-02
-1.5710342e-03
7.1978007e-03
1.3704032e-02
1.8215764e-02
2.0875850e-02
2.1623250e-02
2.0608642e-02
1.8726200e-02
1.6815006e-02
1.5510948e-02
1.5377418e-02
1.5475720e-02
1.5656266e-02
1.6253228e-02
1.6932761e-02
1.7361793e-02
1.6044054e-02
1.3610233e-02
1.1075496e-02
7.4694672e-03
3.2846859e-03
-1.3644878e-03
-6.0493734e-03
-9.6649070e-03
-1.2567902e-02
-1.4781866e-02
-1.6536131e-02
-1.7564626e-02
-1.7333680e-02
-1.6701429e-02
-1.6394936e-02
-1.6983482e-02
-1.7293715e-02
-1.5897642e-02
-1.2931778e-02
-8.9839757e-03
-5.7147330e-03
-3.5307711e-03
-1.2620200e-03
1.9822079e-03
6.0108508e-03
1.0617144e-02
1.6196281e-02
2.1738630e-02
2.6562598e-02
3.0639300e-02
3.3192028e-02
3.5156976e-02
3.7418806e-02
3.9896975e-02
4.2767619e-02
4.5057334e-02
4.6652306e-02
4.7944015e-02
4.8660746e-02
4.8106051e-02
4.5729634e-02
4.2421688e-02
3.8252387e-02
3.3659440e-02
3.0168287e-02
2.7672344e-02
2.6117286e-02
2.4995815e-02
2.3604550e-02
2.2281761e-02
2.0987000e-02
1.9679878e-02
1.7837618e-02
1.5845131e-02
1.4315695e-02
1.2184995e-02
9.0193434e-03
4.9397730e-03
5.5869155e-04
-3.4664632e-03
-6.8542250e-03
-8.9995605e-03
-1.0766795e-02
-1.2446923e-02
-1.3697328e-02
-1.5103981e-02
-1.6796848e-02
-1.9430749e-02
-2.2398441e-02
-2.5129730e-02
-2.8772269e-02
-3.3386951e-02
-3.8954183e-02
-4.4267004e-02
-4.8076633e-02
-5.0870705e-02
-5.2403358e-02
-5.2969042e-02
-5.2937904e-02
-5.2422376e-02
-5.1667097e-02
-5.0552421e-02
-4.9705520e-02
-4.9069352e-02
-4.8380186e-02
-4.7298475e-02
-4.4945546e-02
-4.1778872e-02
-3.7426129e-02
-3.1541043e-02
-2.5014717e-02
-1.6728082e-02
-7.0115843e-03
1.4207187e-03
7.5101440e-03
1.2228194e-02
1.6778616e-02
1.9762597e-02
2.0692951e-02
2.0767032e-02
1.9920003e-02
1.8336690e-02
1.5875670e-02
1.3440369e-02
1.1627717e-02
9.5005992e-03
7.6120685e-03
6.6339634e-03
6.8409721e-03
7.7134903e-03
8.8366122e-03
1.0451750e-02
1.1369445e-02
1.1934674e-02
1.2869639e-02
1.3157317e-02
1.2695855e-02
1.1226162e-02
9.2259832e-03
8.2069384e-03
8.8342373e-03
1.0929286e-02
1.3595131e-02
1.6644768e-02
1.9369844e-02
2.1141366e-02
2.2726115e-02
2.4337946e-02
2.6189204e-02
2.7644142e-02
2.7577660e-02
2.5811391e-02
2.2491043e-02
1.8388479e-02
1.3685894e-02
8.8581133e-03
4.4774692e-03
-3.8203557e-04
-4.8720250e-03
-8.0447682e-03
-1.0548944e-02
-1.3006533e-02
-1.6509943e-02
-2.0425185e-02
-2.3335095e-02
-2.3618329e-02
-2.0940412e-02
-1.7275334e-02
-1.2447938e-02
-6.5749698e-03
-6.6859208e-04
5.2185620e-03
9.7958614e-03
1.2901864e-02
1.5854879e-02
1.9164240e-02
2.2146857e-02
2.3901510e-02
2.5909142e-02
2.8740353e-02
3.1493662e-02
3.4458487e-02
3.7433463e-02
3.9900518e-02
4.0624845e-02
3.9056127e-02
3.5934596e-02
3.1073635e-02
2.4518954e-02
1.6819746e-02
9.3942494e-03
3.7293519e-03
-8.5469501e-04
-5.3174331e-03
-9.9048013e-03
-1.4021854e-02
-1.7262354e-02
-2.0296023e-02
-2.3102990e-02
-2.5892371e-02
-2.8749040e-02
-3.0576408e-02
-3.0977072e-02
-3.0921063e-02
-3.2110761e-02
-3.3434432e-02
-3.2302714e-02
-2.9199961e-02
-2.5057047e-02
-2.0726281e-02
-1.6473216e-02
-1.2211819e-02
-9.0655254e-03
-5.8275324e-03
-8.4728249e-04
5.6225439e-03
1.2395567e-02
1.7822974e-02
2.3009803e-02
2.9072423e-02
3.3962640e-02
3.5791391e-02
3.5014736e-02
3.2772532e-02
2.8595765e-02
2.3215133e-02
1.7685532e-02
1.1741367e-02
6.3916369e-03
1.6669115e-03
-2.1403020e-03
-4.1610299e-03
-5.3309167e-03
-6.2627486e-03
-7.6993860e-03
-9.6043079e-03
-1.1524769e-02
-1.3665845e-02
-1.5020290e-02
-1.5942281e-02
-1.7520872e-02
-1.9075357e-02
-1.9643345e-02
-1.8949762e-02
-1.8228783e-02
-1.7846890e-02
-1.7408468e-02
-1.7255931e-02
-1.6356193e-02
-1.4368985e-02
-1.1914235e-02
-9.4051634e-03
-6.5110993e-03
-2.6641668e-03
1.0127647e-03
4.7162020e-03
8.7772951e-03
1.2596829e-02
1.6657370e-02
1.9751311e-02
2.1209151e-02
2.2112043e-02
2.2372538e-02
2.2197734e-02
2.1846722e-02
2.0660690e-02
1.7440464e-02
1.3163896e-02
9.6823615e-03
5.4496418e-03
-3.6044878e-04
-6.7597772e-03
-1.2906217e-02
-1.8010384e-02
-2.2558525e-02
-2.6397236e-02
-2.9388250e-02
-3.2053821e-02
-3.4479678e-02
-3.6897936e-02
-3.8293981e-02
-3.8670878e-02
-3.8151368e-02
-3.5919797e-02
-3.3150367e-02
-2.9296100e-02
-2.2990610e-02
-1.5276457e-02
-8.3211359e-03
-3.7360767e-03
-1.8811574e-04
3.7363703e-03
8.0823061e-03
1.3034406e-02
1.7633628e-02
2.1195046e-02
2.4135486e-02
2.7789060e-02
3.3114717e-02
3.8094434e-02
4.2242596e-02
4.6587105e-02
5.0451832e-02
5.3548603e-02
5.5036913e-02
5.4970673e-02
5.4036607e-02
5.1822220e-02
4.8040006e-02
4.2113218e-02
3.3741795e-02
2.1594042e-02
6.7804865e-03
-5.7405277e-03
-1.4315786e-02
-1.9773592e-02
-2.3961360e-02
-2.7676528e-02
-2.9066364e-02
-2.8811767e-02
-2.7963951e-02
-2.7354295e-02
-2.8398834e-02
-3.0846684e-02
-3.5144194e-02
-4.1310550e-02
-5.0132878e-02
-6.2824022e-02
-7.7850944e-02
-9.4369638e-02
-1.1149216e-01
-1.2675623e-01
-1.3666201e-01
-1.3840612e-01
-1.3152712e-01
-1.1525300e-01
-8.9004961e-02
-5.6169437e-02
-2.3835526e-02
3.4408282e-03
2.5567254e-02
4.3703327e-02
5.9492618e-02
7.4080511e-02
8.7370049e-02
9.8824458e-02
1.0779488e-01
1.1511864e-01
1.2257309e-01
1.3023711e-01
1.3666181e-01
1.4056206e-01
1.4255170e-01
1.4308161e-01
1.4151548e-01
1.3803810e-01
1.3238767e-01
1.2389131e-01
1.1115333e-01
9.2383239e-02
6.6792918e-02
3.2116088e-02
-7.3433252e-03
-4.0577466e-02
-6.4688997e-02
-8.1216263e-02
-9.0695766e-02
-9.5218068e-02
-9.7624183e-02
-9.9287708e-02
-9.9402186e-02
-9.8392898e-02
-9.6687730e-02
-9.3917881e-02
-9.0243961e-02
-8.5514699e-02
-8.0565152e-02
-7.5552801e-02
-6.9905916e-02
-6.3895516e-02
-5.7421068e-02
-5.0694607e-02
-4.3308811e-02
-3.5475347e-02
-2.7804065e-02
-1.8547740e-02
-7.4512730e-03
3.7669848e-03
1.3864451e-02
2.1890752e-02
2.7927023e-02
3.2389536e-02
3.5524289e-02
3.7041679e-02
3.6542134e-02
3.4379029e-02
3.0294980e-02
2.5026004e-02
1.9769891e-02
1.3954084e-02
7.8410673e-03
2.3049529e-03
-1.9405384e-03
-4.2835375e-03
-4.8950035e-03
-4.0926817e-03
-2.9958257e-03
-2.5026223e-03
-2.6564338e-03
-2.8328342e-03
-2.2143833e-03
-1.2851754e-03
-1.1273479e-04
1.4145197e-03
2.8248217e-03
4.4071861e-03
5.8452425e-03
6.7822235e-03
7.0200387e-03
6.4767012e-03
6.1418395e-03
6.1229897e-03
6.4129640e-03
6.7457398e-03
7.4596259e-03
9.1171084e-03
1.0112142e-02
1.0442872e-02
1.1110963e-02
1.2236525e-02
1.3511671e-02
1.4066565e-02
1.4097570e-02
1.3544048e-02
1.2285876e-02
1.0896371e-02
8.3393277e-03
4.4532774e-03
9.0715805e-04
-1.3767766e-03
-2.7920202e-03
-4.4226457e-03
-5.7229858e-03
-6.3330088e-03
-6.7281448e-03
-6.4609411e-03
-5.5067066e-03
-4.8443792e-03
-6.0345724e-03
-8.2977130e-03
-9.8888345e-03
-1.1334154e-02
-1.2875637e-02
-1.4683134e-02
-1.6622276e-02
-1.7516855e-02
-1.7061001e-02
-1.4894512e-02
-1.1841652e-02
-9.4116159e-03
-7.6255285e-03
-6.0012705e-03
-3.8310369e-03
-1.9768783e-03
-7.1516387e-04
8.1453272e-04
2.3515465e-03
4.8821359e-03
9.1308405e-03
1.4284484e-02
1.9091512e-02
2.2807429e-02
2.5875988e-02
2.8317946e-02
3.0406558e-02
3.2470861e-02
3.3592144e-02
3.3291322e-02
3.1948146e-02
2.9825134e-02
2.7076342e-02
2.3946608e-02
2.0158476e-02
1.5032934e-02
8.9443851e-03
2.0554343e-03
-6.0804876e-03
-1.4008418e-02
-2.0959786e-02
-2.6839444e-02
-3.1356450e-02
-3.6121266e-02
-4.1362543e-02
-4.6418390e-02
-5.0890060e-02
-5.4372899e-02
-5.7221677e-02
-5.9854350e-02
-6.2586534e-02
-6.4813988e-02
-6.6461328e-02
-6.7986837e-02
-6.9304296e-02
-7.0891590e-02
-7.2999369e-02
-7.5473587e-02
-7.7428473e-02
-7.7930756e-02
-7.6988620e-02
-7.2348517e-02
-6.1366500e-02
-4.1925019e-02
-1.5326862e-02
1.1354498e-02
3.6227438e-02
6.1234163e-02
8.6281273e-02
1.1050424e-01
1.3114822e-01
1.4702657e-01
1.5694981e-01
1.5893875e-01
1.5365050e-01
1.4218582e-01
1.2719001e-01
1.1247369e-01
1.0034225e-01
9.0810226e-02
8.1870088e-02
7.3123673e-02
6.3902086e-02
5.2867231e-02
3.9549265e-02
2.2925779e-02
4.2127642e-03
-1.3685108e-02
-2.7513153e-02
-3.4296798e-02
-3.4940435e-02
-3.3582151e-02
-3.3902863e-02
-3.6484025e-02
-4.0402368e-02
-4.5844989e-02
-5.1840589e-02
-5.7645744e-02
-6.3408175e-02
-6.7468407e-02
-6.8958298e-02
-6.8671070e-02
-6.7030414e-02
-6.2820427e-02
-5.5678533e-02
-4.7745092e-02
-3.9590026e-02
-3.0543532e-02
-2.0457730e-02
-1.0051724e-02
-7.2429752e-04
7.6691004e-03
1.5801505e-02
2.5273617e-02
3.6113990e-02
4.4355197e-02
4.7941447e-02
4.7940953e-02
4.6190615e-02
4.3410630e-02
3.9409389e-02
3.4881862e-02
2.9352393e-02
2.3110665e-02
1.7474240e-02
1.1761520e-02
6.1218971e-03
9.7997153e-04
-3.9322585e-03
-8.2315437e-03
-1.1538729e-02
-1.2852413e-02
-1.2734759e-02
-1.2076135e-02
-1.0829474e-02
-9.7439115e-03
-8.5747632e-03
-7.9393510e-03
-8.8268618e-03
-1.0651513e-02
-1.2665924e-02
-1.3873412e-02
-1.3989911e-02
-1.2647484e-02
-9.7461036e-03
-6.2227122e-03
-2.6858355e-03
3.9675946e-05
2.6037446e-03
5.4272233e-03
7.1191931e-03
7.4746693e-03
6.2489799e-03
3.7548974e-03
1.0240856e-03
-1.6361886e-03
-2.9360424e-03
-2.6559243e-03
-2.1770910e-03
-2.2442019e-03
-2.4217956e-03
-1.6537642e-03
-1.1916935e-04
1.7228133e-03
3.0546277e-03
3.2621750e-03
2.9102239e-03
1.1730927e-03
-1.5656183e-03
-3.8654096e-03
-6.1633707e-03
-8.5096124e-03
-1.1019006e-02
-1.3031088e-02
-1.3546379e-02
-1.3033039e-02
-1.1471625e-02
-9.2581386e-03
-6.3103183e-03
-2.3482568e-03
1.7443281e-03
5.8912855e-03
9.3637904e-03
1.1596396e-02
1.2894871e-02
1.3504319e-02
1.4213041e-02
1.4221734e-02
1.3299424e-02
1.2629839e-02
1.1676357e-02
9.3154516e-03
4.9091924e-03
-6.7786810e-04
-5.8355168e-03
-9.6263936e-03
-1.2036579e-02
-1.4111830e-02
-1.5671824e-02
-1.7344619e-02
-2.0583447e-02
-2.4260877e-02
-2.7418056e-02
-2.9535662e-02
-3.0315780e-02
-3.0066077e-02
-2.9136967e-02
-2.8693344e-02
-2.8347307e-02
-2.7568539e-02
-2.6359735e-02
-2.3801623e-02
-2.0663679e-02
-1.7254473e-02
-1.3142634e-02
-9.1632810e-03
-6.0840540e-03
-4.3963520e-03
-3.1858539e-03
-2.0366603e-03
-7.7315637e-04
1.0425585e-03
2.3535772e-03
3.8486013e-03
5.7671348e-03
6.7752683e-03
7.5038339e-03
8.5748499e-03
9.9527985e-03
1.1062613e-02
1.1495249e-02
1.2380378e-02
1.4096359e-02
1.5771545e-02
1.5745704e-02
1.3968468e-02
1.1293390e-02
5.5999751e-03
-3.6027545e-03
-1.3297386e-02
-2.0803138e-02
-2.5836597e-02
-2.9245278e-02
-3.0309747e-02
-2.9045470e-02
-2.6279973e-02
-2.1952683e-02
-1.6310673e-02
-1.0037812e-02
-4.0996441e-03
1.9328169e-03
8.2450537e-03
1.3363811e-02
1.7526029e-02
2.1581577e-02
2.5570282e-02
2.8729323e-02
3.0814795e-02
3.2730917e-02
3.3524369e-02
3.2847913e-02
3.1271009e-02
2.9348246e-02
2.8967655e-02
2.9790871e-02
3.1142452e-02
3.3655202e-02
3.6666410e-02
3.9517820e-02
4.2050172e-02
4.5227924e-02
4.9419154e-02
5.3769511e-02
5.8472001e-02
6.2372455e-02
6.5040226e-02
6.7499158e-02
6.9631983e-02
7.2004364e-02
7.4092897e-02
7.4686546e-02
7.4268920e-02
7.3669743e-02
7.2163358e-02
6.7334171e-02
5.8510138e-02
4.5856470e-02
2.7942423e-02
2.7694193e-03
-2.6116558e-02
-4.8973454e-02
-6.2904914e-02
-7.0295465e-02
-7.2219577e-02
-7.1386985e-02
-6.9546486e-02
-6.6699973e-02
-6.3062888e-02
-5.9625071e-02
-5.7528807e-02
-5.6466914e-02
-5.6164001e-02
-5.6122759e-02
-5.6136973e-02
-5.7431591e-02
-5.8967025e-02
-5.9005429e-02
-5.7621812e-02
-5.5657701e-02
-5.4154875e-02
-5.2302453e-02
-4.8669408e-02
-4.2881381e-02
-3.5479466e-02
-2.8255721e-02
-2.1914868e-02
-1.6570856e-02
-1.2867557e-02
-1.1021159e-02
-1.1390211e-02
-1.2837382e-02
-1.4176006e-02
-1.5693430e-02
-1.6808991e-02
-1.6832345e-02
-1.5605776e-02
-1.3852505e-02
-1.1995800e-02
-9.6293609e-03
-6.9541531e-03
-3.4099254e-03
5.4656044e-04
3.7772650e-03
6.6078454e-03
9.6926385e-03
1.3666313e-02
1.8697019e-02
2.5060364e-02
3.2653018e-02
4.0015424e-02
4.5252024e-02
4.7717913e-02
4.8384959e-02
4.7165961e-02
4.3078508e-02
3.7492501e-02
3.1589500e-02
2.5903142e-02
2.1912665e-02
1.9020799e-02
1.5731421e-02
1.1636522e-02
7.1803112e-03
2.9562369e-03
-6.2682208e-04
-2.9457157e-03
-4.8895216e-03
-6.7009504e-03
-7.1840339e-03
-7.0399355e-03
-7.2960863e-03
-8.6657296e-03
-1.0918436e-02
-1.2636614e-02
-1.3273323e-02
-1.2381378e-02
-1.0095257e-02
-7.2243880e-03
-4.3009403e-03
-1.3123138e-03
2.0256837e-03
5.1068338e-03
8.1594245e-03
1.1186594e-02
1.3070119e-02
1.4199326e-02
1.5441463e-02
1.7429304e-02
1.9733096e-02
2.0990106e-02
2.0529713e-02
1.7633916e-02
1.2911067e-02
7.1817144e-03
2.8292534e-04
-7.1422690e-03
-1.4677936e-02
-2.0451371e-02
-2.4156014e-02
-2.8047325e-02
-3.2323709e-02
-3.6750966e-02
-3.9997484e-02
-4.1598439e-02
-4.3408151e-02
-4.5954106e-02
-4.8689287e-02
-5.0436483e-02
-5.0647521e-02
-4.9855745e-02
-4.8291552e-02
-4.6280088e-02
-4.3075903e-02
-3.8288220e-02
-3.2832509e-02
-2.6602129e-02
-1.9923698e-02
-1.3641290e-02
-7.3897819e-03
-6.9491853e-05
8.4230339e-03
1.7323230e-02
2.7438517e-02
3.9297756e-02
5.0689520e-02
5.9669417e-02
6.6223211e-02
7.0448942e-02
7.1889122e-02
7.0967187e-02
6.8343798e-02
6.4031103e-02
5.9424557e-02
5.4728087e-02
4.8293464e-02
3.9809736e-02
3.0417142e-02
2.2172562e-02
1.5302933e-02
9.1945693e-03
4.0775761e-03
-8.3492186e-04
-5.9535877e-03
-1.1110483e-02
-1.5795868e-02
-1.9419087e-02
-2.2042125e-02
-2.3021294e-02
-2.2607280e-02
-2.1489873e-02
-2.0157069e-02
-1.9982034e-02
-2.0772589e-02
-2.2059600e-02
-2.3271350e-02
-2.3937312e-02
-2.4684614e-02
-2.4756704e-02
-2.3652735e-02
-2.0683897e-02
-1.5667251e-02
-1.0226011e-02
-4.8994076e-03
1.3878744e-04
5.3130191e-03
1.0472860e-02
1.4747803e-02
1.9059990e-02
2.3357338e-02
2.6968218e-02
2.9243473e-02
2.9673717e-02
3.0566975e-02
3.2854190e-02
3.4471874e-02
3.3611327e-02
3.0387659e-02
2.7185073e-02
2.4290796e-02
2.0886239e-02
1.8240132e-02
1.6937632e-02
1.6724803e-02
1.6260852e-02
1.4809648e-02
1.3015011e-02
1.1398790e-02
1.1077903e-02
1.1533197e-02
1.2570371e-02
1.4464735e-02
1.5538672e-02
1.5581157e-02
1.4451799e-02
1.1502672e-02
7.3552028e-03
1.6393073e-03
-6.8396153e-03
-1.9675741e-02
-3.4490036e-02
-4.5920865e-02
-5.2365819e-02
-5.4576027e-02
-5.4496973e-02
-5.2510142e-02
-4.8295942e-02
-4.3754205e-02
-3.9420110e-02
-3.5024577e-02
-3.0509317e-02
-2.5354351e-02
-1.9624233e-02
-1.3555953e-02
-8.3044508e-03
-4.3163449e-03
-9.1017014e-04
1.3039874e-03
1.9366621e-03
1.5064637e-03
1.2464283e-03
1.8757061e-03
3.2893219e-03
5.5943465e-03
8.4488573e-03
1.1657179e-02
1.4437116e-02
1.6007560e-02
1.6169608e-02
1.4817425e-02
1.3585516e-02
1.3056757e-02
1.2480199e-02
1.1937970e-02
1.0785264e-02
9.5580984e-03
8.4615328e-03
6.2815858e-03
3.4747182e-03
-1.0274289e-04
-4.8033645e-03
-9.7028366e-03
-1.3732151e-02
-1.6601850e-02
-1.8846307e-02
-2.0228718e-02
-2.1326783e-02
-2.2104730e-02
-2.1038069e-02
-1.8112377e-02
-1.3535064e-02
-8.1118838e-03
-3.1249253e-03
1.1781320e-03
5.1837134e-03
9.0497432e-03
1.1196152e-02
1.1817733e-02
1.3218307e-02
1.5140716e-02
1.6516016e-02
1.6396457e-02
1.4637701e-02
1.2436591e-02
1.0244349e-02
7.6121704e-03
3.0057446e-03
-2.5875903e-03
-6.5829146e-03
-9.2239300e-03
-1.1208196e-02
-1.3583632e-02
-1.6727790e-02
-1.9167670e-02
-2.0445022e-02
-2.0878518e-02
-2.1659010e-02
-2.2630626e-02
-2.2998668e-02
-2.4119896e-02
-2.5455274e-02
-2.6127993e-02
-2.6907736e-02
-2.8035397e-02
-2.9391234e-02
-3.0611770e-02
-3.1510441e-02
-3.1684206e-02
-3.1378070e-02
-3.1426988e-02
-3.0934921e-02
-2.8826719e-02
-2.5307366e-02
-2.1825981e-02
-1.8235113e-02
-1.2341372e-02
-5.3557123e-03
1.6698353e-03
1.0199717e-02
2.0737500e-02
3.2249544e-02
4.1888656e-02
4.9362989e-02
5.6419603e-02
6.2203082e-02
6.4656197e-02
6.3463703e-02
6.0804443e-02
5.6981618e-02
5.1227964e-02
4.5168138e-02
3.9608680e-02
3.4983329e-02
3.1563810e-02
2.8524821e-02
2.5069902e-02
2.0281731e-02
1.4438571e-02
8.2857558e-03
2.5229049e-03
-2.1890264e-03
-6.6795210e-03
-1.1376930e-02
-1.6389482e-02
-2.1810279e-02
-2.6623817e-02
-3.0324981e-02
-3.2136123e-02
-3.1543675e-02
-3.0235695e-02
-2.9488197e-02
-2.8789675e-02
-2.7636767e-02
-2.6245736e-02
-2.3931848e-02
-2.0527066e-02
-1.7804958e-02
-1.5708924e-02
-1.3452560e-02
-1.1095475e-02
-8.1633570e-03
-5.6940896e-03
-3.9046097e-03
-1.4051595e-03
1.8350361e-03
5.4176906e-03
8.6316775e-03
1.0942135e-02
1.1856858e-02
1.2286591e-02
1.3829081e-02
1.4809815e-02
1.3913892e-02
1.2017242e-02
1.0494044e-02
9.9926936e-03
9.7883410e-03
1.0339626e-02
1.1763931e-02
1.4015718e-02
1.7415271e-02
2.0097403e-02
2.0977050e-02
2.0499292e-02
1.9565469e-02
1.9525750e-02
2.0028251e-02
1.9396809e-02
1.7005783e-02
1.4187672e-02
1.1230600e-02
7.1070303e-03
1.7574879e-03
-5.6656376e-03
-1.5408359e-02
-2.5548979e-02
-3.3982791e-02
-3.9521448e-02
-4.2498777e-02
-4.3305722e-02
-4.1986391e-02
-3.9691483e-02
-3.6794154e-02
-3.2689461e-02
-2.6789612e-02
-1.9373284e-02
-1.1685686e-02
-4.4544340e-03
1.1996114e-03
5.2432701e-03
8.5454039e-03
1.1405395e-02
1.3932643e-02
1.5351510e-02
1.6083180e-02
1.6766446e-02
1.6899589e-02
1.6666172e-02
1.5991641e-02
1.5315067e-02
1.4893355e-02
1.4194650e-02
1.3349560e-02
1.2391991e-02
1.1455712e-02
1.0340113e-02
8.8279204e-03
7.2707338e-03
6.2642064e-03
6.6409436e-03
7.7961291e-03
9.4190587e-03
1.2583898e-02
1.6318774e-02
1.9527556e-02
2.2303168e-02
2.4399436e-02
2.6046764e-02
2.6906879e-02
2.7258901e-02
2.7881084e-02
2.8064582e-02
2.6944271e-02
2.4027286e-02
1.8816339e-02
1.1611002e-02
4.9969753e-03
2.7603339e-04
-4.3759709e-03
-9.5210454e-03
-1.4924656e-02
-2.0301539e-02
-2.4799039e-02
-2.9523298e-02
-3.5012131e-02
-3.9639590e-02
-4.2447799e-02
-4.4035299e-02
-4.6011555e-02
-4.8337243e-02
-5.0163086e-02
-5.1535286e-02
-5.2617898e-02
-5.3760582e-02
-5.3984145e-02
-5.2959076e-02
-5.1184387e-02
-4.7562099e-02
-4.1095238e-02
-3.0361001e-02
-1.7022628e-02
-6.2151756e-03
1.2898280e-03
8.1573036e-03
1.5589269e-02
2.2691653e-02
2.9008544e-02
3.4655387e-02
3.8610695e-02
4.0709520e-02
4.1247701e-02
4.1028154e-02
4.1067211e-02
4.0042851e-02
3.8180863e-02
3.6652802e-02
3.5408252e-02
3.5211847e-02
3.4616422e-02
3.1851237e-02
2.7477511e-02
2.2807931e-02
1.8095695e-02
1.2852983e-02
7.6970506e-03
2.3860786e-03
-2.7496322e-03
-6.5894958e-03
-9.5738686e-03
-1.1783150e-02
-1.3420754e-02
-1.4099312e-02
-1.2666124e-02
-1.0517831e-02
-8.6645779e-03
-7.2595886e-03
-6.6259521e-03
-5.8654131e-03
-4.5639355e-03
-2.5874546e-03
-9.3504100e-04
3.5516625e-04
2.4921751e-03
4.8458644e-03
7.3990699e-03
9.7707368e-03
1.1244055e-02
1.2390460e-02
1.3559738e-02
1.4499284e-02
1.4842385e-02
1.5891694e-02
1.8197383e-02
2.0740861e-02
2.3181919e-02
2.3955449e-02
2.2907721e-02
2.1424671e-02
1.9045921e-02
1.5378395e-02
9.9783066e-03
3.8250975e-03
-1.4329262e-03
-6.0224248e-03
-9.7636077e-03
-1.2704569e-02
-1.4230751e-02
-1.4151875e-02
-1.4030787e-02
-1.3865461e-02
-1.3658914e-02
-1.3707292e-02
-1.4194867e-02
-1.5576748e-02
-1.7200234e-02
-1.8850915e-02
-2.0099272e-02
-2.0508101e-02
-1.9984352e-02
-1.7646990e-02
-1.4378458e-02
-1.1177391e-02
-7.9628400e-03
-4.7183586e-03
-1.0192071e-03
2.7361366e-03
7.1779171e-03
1.2813030e-02
1.8906543e-02
2.5404528e-02
3.0869711e-02
3.5278166e-02
4.0216532e-02
4.4543543e-02
4.6415699e-02
4.5188695e-02
4.1294906e-02
3.4404778e-02
2.3606659e-02
9.7578451e-03
-5.8549340e-03
-2.0981246e-02
-3.3347064e-02
-4.3133315e-02
-5.0957779e-02
-5.7155936e-02
-6.1876527e-02
-6.5750846e-02
-6.9023351e-02
-7.0758000e-02
-7.2115426e-02
-7.4422215e-02
-7.7937760e-02
-8.2516476e-02
-8.7373084e-02
-9.3380292e-02
-9.9805978e-02
-1.0434227e-01
-1.0577853e-01
-1.0380448e-01
-9.9636873e-02
-9.1917322e-02
-7.7550659e-02
-5.4901042e-02
-2.2806036e-02
1.3240839e-02
4.3564002e-02
6.5803107e-02
8.2299108e-02
9.3602336e-02
9.9569397e-02
1.0272392e-01
1.0457595e-01
1.0397088e-01
1.0004243e-01
9.2396425e-02
8.2879128e-02
7.2758611e-02
6.1614578e-02
4.9723189e-02
3.7175884e-02
2.4937426e-02
1.4513795e-02
6.5557691e-03
5.4693657e-04
-4.6112240e-03
-8.4805527e-03
-1.0289373e-02
-9.1584658e-03
-4.1609721e-03
2.6037238e-03
8.2070673e-03
1.1328135e-02
1.2887133e-02
1.4901978e-02
1.7469074e-02
2.0071298e-02
2.1789516e-02
2.3091525e-02
2.4976079e-02
2.6943457e-02
3.0201914e-02
3.5401330e-02
4.1948666e-02
4.8978996e-02
5.4695827e-02
5.8514859e-02
6.0906300e-02
6.2519321e-02
6.2066069e-02
5.7948606e-02
5.1136538e-02
4.1570214e-02
2.8677942e-02
1.1761983e-02
-8.1114928e-03
-2.5172025e-02
-3.6636113e-02
-4.3738468e-02
-4.7442321e-02
-4.8530256e-02
-4.7439254e-02
-4.4736370e-02
-4.0468631e-02
-3.5640942e-02
-3.1117451e-02
-2.6409100e-02
-2.2145710e-02
-1.7866942e-02
-1.3256427e-02
-9.8529386e-03
-7.3162162e-03
-5.3889274e-03
-4.3202834e-03
-4.1932847e-03
-5.8997868e-03
-8.6278958e-03
-1.1825324e-02
-1.5133914e-02
-1.8270266e-02
-2.1796021e-02
-2.4614031e-02
-2.6699564e-02
-2.8252832e-02
-2.8428666e-02
-2.7456360e-02
-2.4898102e-02
-2.0723939e-02
-1.5888248e-02
-1.1238429e-02
-7.4020493e-03
-4.0970179e-03
-1.5056678e-03
5.5260635e-04
2.6136424e-03
3.8627642e-03
3.6127421e-03
2.2205291e-03
7.7418880e-04
-8.5194519e-04
-3.5863997e-03
-6.2757362e-03
-7.6588876e-03
-7.3085253e-03
-4.5697003e-03
-2.5759371e-04
3.5682188e-03
5.4315246e-03
5.5438520e-03
4.9103686e-03
3.9227789e-03
2.4883873e-03
5.1666750e-04
-1.1003084e-03
-2.2480209e-03
-3.7674136e-03
-5.7432086e-03
-8.2680831e-03
-1.0688936e-02
-1.2458123e-02
-1.3912368e-02
-1.5640142e-02
-1.7603593e-02
-1.8425684e-02
-1.8503395e-02
-1.8112926e-02
-1.6184413e-02
-1.3706361e-02
-1.0724933e-02
-6.3008520e-03
-6.9083176e-04
5.0570277e-03
9.7824802e-03
1.4918561e-02
2.1456700e-02
2.8017686e-02
3.3716564e-02
3.7634409e-02
3.9972720e-02
4.0953226e-02
4.0562239e-02
4.0366236e-02
4.0217775e-02
3.9258938e-02
3.7550448e-02
3.5452942e-02
3.4228694e-02
3.3878390e-02
3.3511810e-02
3.2793417e-02
3.1621403e-02
2.9498538e-02
2.4931009e-02
1.7626644e-02
6.9854674e-03
-6.4699843e-03
-1.9164650e-02
-3.0189781e-02
-3.9425029e-02
-4.5234519e-02
-4.7456190e-02
-4.7523623e-02
-4.7107412e-02
-4.6151488e-02
-4.4997809e-02
-4.4259405e-02
-4.2439432e-02
-3.9225147e-02
-3.5584863e-02
-3.2034494e-02
-2.8079150e-02
-2.2595694e-02
-1.5943546e-02
-8.7520168e-03
-2.1417577e-03
3.2857356e-03
7.7122478e-03
1.0792243e-02
1.3438729e-02
1.5599023e-02
1.7651265e-02
2.0523243e-02
2.2430602e-02
2.2858690e-02
2.1817872e-02
1.8142320e-02
1.2726357e-02
7.0280456e-03
1.8489999e-03
-2.6885426e-03
-6.6327815e-03
-9.9608662e-03
-1.3563925e-02
-1.6882079e-02
-1.9649222e-02
-2.2582009e-02
-2.5308214e-02
-2.7250605e-02
-2.8105573e-02
-2.8932687e-02
-2.9511793e-02
-2.9153566e-02
-2.8905179e-02
-2.7752035e-02
-2.4281687e-02
-1.9099896e-02
-1.3540940e-02
-8.2362043e-03
-2.6489480e-03
2.6298174e-03
7.4489280e-03
1.2107709e-02
1.6225148e-02
2.0436036e-02
2.4617807e-02
2.8840909e-02
3.3666374e-02
3.8484979e-02
4.3508709e-02
4.9229305e-02
5.4795846e-02
5.8410290e-02
5.9086699e-02
5.8349034e-02
5.7140123e-02
5.4546424e-02
4.9482153e-02
4.1653202e-02
3.1896943e-02
1.9465230e-02
5.0270531e-03
-8.3772765e-03
-1.9726270e-02
-2.8073915e-02
-3.3284119e-02
-3.6207108e-02
-3.7348024e-02
-3.7869603e-02
-3.8020067e-02
-3.8211470e-02
-3.8500972e-02
-3.7917898e-02
-3.6621020e-02
-3.5132860e-02
-3.3736022e-02
-3.2189050e-02
-3.0784753e-02
-3.0396574e-02
-3.0692942e-02
-3.0970065e-02
-3.0066671e-02
-2.7091867e-02
-2.2283142e-02
-1.5955588e-02
-7.9986771e-03
1.9589409e-03
1.1808618e-02
1.9699866e-02
2.6396819e-02
3.1413167e-02
3.5219490e-02
3.8605139e-02
4.1059858e-02
4.2247253e-02
4.0641150e-02
3.6548866e-02
3.1599591e-02
2.6549113e-02
2.1755194e-02
1.5966180e-02
9.6328346e-03
3.9666137e-03
-9.7859591e-04
-4.3795478e-03
-6.8906852e-03
-9.1305339e-03
-1.0928017e-02
-1.1957069e-02
-1.1536260e-02
-1.1023648e-02
-1.1212634e-02
-1.2483029e-02
-1.4781247e-02
-1.6232466e-02
-1.6833500e-02
-1.7073668e-02
-1.6852355e-02
-1.5899612e-02
-1.3994436e-02
-1.1802736e-02
-9.3894644e-03
-7.4981484e-03
-5.7884636e-03
-3.1902905e-03
-1.3694106e-03
-9.8773437e-06
2.8274228e-03
6.9460003e-03
1.1440265e-02
1.5278679e-02
1.8054809e-02
1.9107720e-02
1.8842257e-02
1.8658816e-02
1.7962389e-02
1.6779659e-02
1.4793514e-02
1.1569964e-02
8.6751947e-03
5.8211187e-03
2.0166611e-03
-2.7222349e-03
-6.8719854e-03
-9.6998611e-03
-1.3479724e-02
-1.7858789e-02
-2.1346720e-02
-2.4360102e-02
-2.8131511e-02
-3.3757466e-02
-3.9762387e-02
-4.4653931e-02
-4.8180946e-02
-5.0455902e-02
-5.1918254e-02
-5.1882498e-02
-5.0190856e-02
-4.6579736e-02
-3.9834307e-02
-3.0093417e-02
-1.8731761e-02
-7.8242666e-03
1.4804365e-03
9.2791991e-03
1.5215736e-02
1.9488492e-02
2.2785548e-02
2.6451974e-02
3.1447739e-02
3.6416304e-02
4.0864034e-02
4.5197266e-02
4.9508045e-02
5.4133184e-02
5.8252669e-02
6.1317427e-02
6.3357616e-02
6.4760433e-02
6.6719245e-02
6.9024636e-02
7.0301749e-02
6.8552049e-02
6.3070823e-02
5.4704490e-02
4.3074692e-02
3.0612769e-02
2.1274407e-02
1.5100121e-02
1.1167675e-02
9.5138446e-03
9.7081569e-03
9.7310504e-03
8.7201021e-03
7.4717685e-03
5.6988469e-03
3.7722399e-03
2.4568606e-03
2.6492343e-03
5.5436026e-03
1.0625628e-02
1.6814262e-02
2.3202617e-02
3.0005180e-02
3.7798059e-02
4.5930297e-02
5.3934393e-02
6.1356396e-02
6.8783241e-02
7.6317011e-02
8.3589570e-02
9.0647854e-02
9.5642328e-02
9.8402890e-02
9.9320140e-02
9.7252879e-02
9.2854648e-02
8.7072390e-02
8.1390020e-02
7.7288745e-02
7.4420717e-02
7.1336819e-02
6.6177207e-02
5.9333848e-02
5.0689023e-02
3.9186160e-02
2.5828161e-02
1.0426335e-02
-6.3272021e-03
-2.1386934e-02
-3.3749448e-02
-4.3919761e-02
-5.2481495e-02
-5.9748933e-02
-6.5396882e-02
-6.9645368e-02
-7.3693672e-02
-7.8374152e-02
-8.2630704e-02
-8.5201211e-02
-8.5897292e-02
-8.4690161e-02
-8.2578345e-02
-8.0439778e-02
-7.7727845e-02
-7.3615301e-02
-6.8173683e-02
-6.2635151e-02
-5.7062161e-02
-5.0963041e-02
-4.4309521e-02
-3.7716238e-02
-3.3266308e-02
-3.1699860e-02
-3.2533670e-02
-3.4624944e-02
-3.6261991e-02
-3.7692645e-02
-3.8941207e-02
-3.9194218e-02
-3.8395783e-02
-3.7208032e-02
-3.7379231e-02
-3.8704055e-02
-4.0641652e-02
-4.3512419e-02
-4.5621730e-02
-4.6667471e-02
-4.7319430e-02
-4.7557386e-02
-4.7625419e-02
-4.7598320e-02
-4.8076286e-02
-4.8707687e-02
-4.8664135e-02
-4.7818059e-02
-4.5931749e-02
-4.3604364e-02
-4.1614699e-02
-3.9720669e-02
-3.6748629e-02
-3.2442810e-02
-2.8130179e-02
-2.3412072e-02
-1.7533516e-02
-1.0486649e-02
-2.4827638e-03
4.4984155e-03
9.5474717e-03
1.2820735e-02
1.4229709e-02
1.3692501e-02
1.0522613e-02
3.8445746e-03
-6.5008516e-03
-1.8188577e-02
-2.9803028e-02
-4.2185363e-02
-5.5216148e-02
-6.8641529e-02
-8.1025185e-02
-9.0577331e-02
-9.7704469e-02
-1.0284902e-01
-1.0599244e-01
-1.0653284e-01
-1.0340154e-01
-9.6158931e-02
-8.3961648e-02
-6.5607601e-02
-3.8854866e-02
-7.0967979e-03
1.9221545e-02
3.6919481e-02
4.8881261e-02
5.6875984e-02
6.2228059e-02
6.6218727e-02
7.0690193e-02
7.5102621e-02
7.8588027e-02
8.1977737e-02
8.5073826e-02
8.7496872e-02
8.9693589e-02
9.2606657e-02
9.5794865e-02
9.7707938e-02
9.8199893e-02
9.7147479e-02
9.4619480e-02
9.1236205e-02
8.6460689e-02
7.9519408e-02
6.9661572e-02
5.6883441e-02
4.2694033e-02
2.9533018e-02
1.8804521e-02
9.6700252e-03
2.9908778e-03
-2.2430156e-04
-1.4910273e-03
-1.3342118e-03
-2.9473571e-04
1.0868748e-03
2.7900182e-03
4.5049119e-03
7.2112530e-03
1.0668630e-02
1.4188758e-02
1.8473551e-02
2.4033336e-02
3.0483562e-02
3.6208925e-02
4.1471332e-02
4.6366754e-02
4.8877835e-02
4.7707378e-02
4.0880210e-02
2.6611995e-02
8.9506787e-03
-3.3443445e-03
-7.2575341e-03
-6.8017541e-03
-4.5380794e-03
-5.1737113e-04
4.4486627e-03
8.3373339e-03
8.9417154e-03
6.7401019e-03
3.1153141e-03
-1.5055879e-03
-6.0546004e-03
-1.0165632e-02
-1.3729185e-02
-1.6433038e-02
-1.7395904e-02
-1.6135528e-02
-1.4343683e-02
-1.3556171e-02
-1.3952017e-02
-1.4911418e-02
-1.7154173e-02
-2.2183410e-02
-2.9793171e-02
-3.8461586e-02
-4.5118196e-02
-4.8449076e-02
-5.0515781e-02
-5.2454775e-02
-5.3583003e-02
-5.2937359e-02
-5.0168135e-02
-4.5914785e-02
-3.9664020e-02
-3.1444031e-02
-2.3177568e-02
-1.5739795e-02
-9.9546754e-03
-6.0754475e-03
-3.4936178e-03
-2.3236048e-03
-3.4445534e-03
-7.5223671e-03
-1.3506849e-02
-2.0254254e-02
-2.6318259e-02
-3.0328558e-02
-3.1984963e-02
-3.0241627e-02
-2.5390365e-02
-1.9463655e-02
-1.3449581e-02
-8.1585340e-03
-4.1674839e-03
-1.6669107e-03
8.7056477e-05
2.5436139e-03
5.0378225e-03
6.5781298e-03
7.1199879e-03
7.0790663e-03
7.3942660e-03
8.7477147e-03
1.0688854e-02
1.2356524e-02
1.3996187e-02
1.5867005e-02
1.8028886e-02
2.0052400e-02
2.1214731e-02
2.2266228e-02
2.3509853e-02
2.4891277e-02
2.6933012e-02
2.8439404e-02
2.8939920e-02
2.8637068e-02
2.6264376e-02
2.1981324e-02
1.6776890e-02
1.1881795e-02
8.6576440e-03
6.7914412e-03
5.9152795e-03
6.3011549e-03
8.8383453e-03
1.4017287e-02
2.0921050e-02
2.8016231e-02
3.3739202e-02
3.8672905e-02
4.3590936e-02
4.7559390e-02
5.0372585e-02
5.2151033e-02
5.3258103e-02
5.3375355e-02
5.0209133e-02
4.2648628e-02
3.1867787e-02
1.9662541e-02
6.5172506e-03
-8.8760189e-03
-2.6913541e-02
-4.6613070e-02
-6.7639936e-02
-8.9593392e-02
-1.0911517e-01
-1.2160268e-01
-1.2554786e-01
-1.2115944e-01
-1.0884807e-01
-9.0683945e-02
-7.0530841e-02
-5.2560781e-02
-3.8569828e-02
-2.9298437e-02
-2.5190502e-02
-2.3863569e-02
-2.3032490e-02
-2.1603467e-02
-1.8058895e-02
-1.1516874e-02
-1.8675058e-03
8.7535846e-03
1.7729172e-02
2.4674671e-02
3.0650839e-02
3.6559894e-02
4.1099869e-02
4.3117051e-02
4.1750122e-02
3.5775200e-02
2.6441931e-02
1.5822592e-02
5.8501036e-03
-1.4787230e-03
-3.8491380e-03
3.7293875e-04
9.7652460e-03
2.2137018e-02
3.3500745e-02
3.9168382e-02
3.8506747e-02
3.3751419e-02
2.8097921e-02
2.3290910e-02
2.0041775e-02
1.9674999e-02
2.1004415e-02
2.0578118e-02
1.6078685e-02
7.5211373e-03
-3.2599532e-03
-1.4590284e-02
-2.5665297e-02
-3.6220209e-02
-4.5293326e-02
-5.1142992e-02
-5.2416005e-02
-4.8472353e-02
-4.0711436e-02
-3.0231480e-02
-1.7217210e-02
-3.5259057e-03
9.4042367e-03
2.1730791e-02
3.4033630e-02
4.4999517e-02
5.1529601e-02
5.2174651e-02
4.6699038e-02
3.6709524e-02
2.5969756e-02
1.7477269e-02
1.2006166e-02
7.9311877e-03
4.1314897e-03
1.1792369e-04
-5.4882608e-03
-1.3072182e-02
-2.1467162e-02
-2.7782126e-02
-2.9093310e-02
-2.5004173e-02
-1.6620494e-02
-5.3793409e-03
7.9361276e-03
2.1968558e-02
3.3743089e-02
4.1535671e-02
4.5356493e-02
4.6748875e-02
4.6168218e-02
4.2162892e-02
3.4680300e-02
2.3830589e-02
9.8647617e-03
-7.0886630e-03
-2.5638726e-02
-4.1807302e-02
-5.3812637e-02
-6.1285496e-02
-6.4275320e-02
-6.4256205e-02
-6.2326609e-02
-5.9066280e-02
-5.4166563e-02
-4.7974321e-02
-4.1478226e-02
-3.4789516e-02
-2.7849396e-02
-2.0339223e-02
-1.2685238e-02
-5.8070977e-03
3.9249440e-04
6.4593000e-03
1.2911087e-02
1.9304372e-02
2.4290438e-02
2.6957055e-02
2.6265739e-02
2.3246241e-02
2.0722522e-02
1.8871164e-02
1.6009631e-02
1.1441524e-02
6.5026359e-03
2.3685413e-03
-1.2672927e-03
-4.3971169e-03
-7.0054137e-03
-9.7817561e-03
-1.2915917e-02
-1.5607121e-02
-1.7763203e-02
-2.0443049e-02
-2.3667628e-02
-2.6672950e-02
-2.8519614e-02
-2.8731911e-02
-2.8580711e-02
-2.8176650e-02
-2.6883000e-02
-2.5039110e-02
-2.2613741e-02
-1.9680463e-02
-1.5952683e-02
-1.0633720e-02
-3.5354628e-03
4.0191815e-03
1.0566724e-02
1.6526788e-02
2.2011458e-02
2.6496622e-02
3.0220709e-02
3.3409439e-02
3.5956722e-02
3.7672326e-02
3.8617564e-02
3.8511982e-02
3.7050549e-02
3.4471395e-02
3.0458270e-02
2.4637867e-02
1.7347760e-02
9.1910857e-03
1.0822931e-03
-6.8535389e-03
-1.4394138e-02
-2.0483013e-02
-2.4293790e-02
-2.4931993e-02
-2.2453761e-02
-1.8137985e-02
-1.4323645e-02
-1.2373855e-02
-1.0759815e-02
-8.5107941e-03
-6.2657893e-03
-4.3537249e-03
-2.8028640e-03
-1.2589928e-03
-5.0786635e-04
-8.3567518e-04
-4.7128981e-04
1.1450971e-03
3.9050538e-03
7.5532492e-03
1.1922749e-02
1.7452896e-02
2.3467246e-02
2.9221742e-02
3.4539942e-02
3.9170964e-02
4.2241313e-02
4.2377647e-02
3.8996837e-02
3.0877998e-02
1.9457328e-02
9.2825531e-03
1.6678400e-03
-4.1372821e-03
-8.6172608e-03
-1.2558694e-02
-1.7803131e-02
-2.4752899e-02
-3.1819939e-02
-3.9229505e-02
-4.6457150e-02
-5.2327531e-02
-5.7251225e-02
-6.1006133e-02
-6.4064455e-02
-6.7391515e-02
-7.0669672e-02
-7.2767003e-02
-7.2863512e-02
-7.1406808e-02
-6.7706545e-02
-6.0532464e-02
-4.9692769e-02
-3.4100289e-02
-1.1624133e-02
1.4900863e-02
3.6820516e-02
5.1628973e-02
6.2354897e-02
6.9520978e-02
7.3848068e-02
7.6540201e-02
7.7888468e-02
7.7523804e-02
7.5307893e-02
7.3047092e-02
7.1323863e-02
6.9352022e-02
6.7478649e-02
6.6272347e-02
6.6402034e-02
6.7782510e-02
7.0246238e-02
7.3736316e-02
7.6676537e-02
7.7356920e-02
7.5293749e-02
7.0862615e-02
6.3344699e-02
5.0248634e-02
3.3128870e-02
1.7451563e-02
5.4246698e-03
-3.3450305e-03
-9.5789504e-03
-1.4762429e-02
-2.0343124e-02
-2.5566138e-02
-2.9455067e-02
-3.4275492e-02
-4.1346947e-02
-4.9228530e-02
-5.7548491e-02
-6.7180181e-02
-7.7411598e-02
-8.5867825e-02
-9.2076919e-02
-9.5752106e-02
-9.5103802e-02
-8.9461013e-02
-7.9304226e-02
-6.7228588e-02
-5.4980818e-02
-4.1257863e-02
-2.5635737e-02
-9.0673964e-03
7.1414279e-03
2.2748368e-02
3.8016703e-02
5.0332795e-02
5.6846130e-02
5.6530942e-02
4.9748065e-02
3.9323351e-02
2.8839357e-02
2.1694012e-02
1.9397250e-02
2.0834761e-02
2.3422902e-02
2.5011390e-02
2.6096489e-02
2.6253672e-02
2.4353861e-02
2.0105713e-02
1.3691738e-02
7.3538321e-03
2.3263155e-03
-1.0523355e-03
-2.8284465e-03
-5.2348811e-03
-9.6278539e-03
-1.5750887e-02
-2.3444567e-02
-3.2595968e-02
-4.0781875e-02
-4.3760094e-02
-4.0249928e-02
-3.0308360e-02
-1.5392402e-02
5.1182235e-04
1.3971816e-02
2.1941159e-02
2.3633161e-02
2.0210154e-02
1.2183308e-02
1.3693519e-03
-8.8515565e-03
-1.4935360e-02
-1.6079476e-02
-1.4672504e-02
-1.1988552e-02
-8.9861456e-03
-5.7889023e-03
-1.7592708e-03
3.7450476e-03
1.2428933e-02
2.2944284e-02
3.2775347e-02
4.1256901e-02
4.8279660e-02
5.3727398e-02
5.6365955e-02
5.6755727e-02
5.6544745e-02
5.5233125e-02
5.2078528e-02
4.7232606e-02
4.1210728e-02
3.3501107e-02
2.4553136e-02
1.6271667e-02
9.0324904e-03
3.9049595e-03
2.9852303e-03
6.5634848e-03
1.1600355e-02
1.3893197e-02
1.2163812e-02
5.9945931e-03
-4.0491104e-03
-1.6763242e-02
-3.2029618e-02
-4.7602321e-02
-6.1297328e-02
-7.2423712e-02
-8.0719615e-02
-8.6570293e-02
-8.9152233e-02
-8.8681070e-02
-8.6125097e-02
-8.2007055e-02
-7.8115422e-02
-7.4359919e-02
-6.9066876e-02
-6.0571618e-02
-4.7879644e-02
-3.2113459e-02
-1.3857983e-02
6.2488507e-03
2.5879957e-02
4.1841576e-02
5.0948948e-02
5.1463589e-02
4.3664236e-02
3.0616228e-02
1.5628646e-02
1.6785522e-03
-7.8926705e-03
-1.2740787e-02
-1.2895149e-02
-8.2275216e-03
-6.6771153e-04
8.4772206e-03
1.7267700e-02
2.4568936e-02
3.1209697e-02
3.6379110e-02
3.9509755e-02
4.1365246e-02
4.2561388e-02
4.3535496e-02
4.4446358e-02
4.4549144e-02
4.3328676e-02
4.2402320e-02
4.3394961e-02
4.5920460e-02
4.8276164e-02
4.7734117e-02
4.1843260e-02
2.9951811e-02
1.3435909e-02
-4.1380072e-03
-2.0157384e-02
-3.3974312e-02
-4.5401564e-02
-5.4561564e-02
-6.0801715e-02
-6.4354138e-02
-6.5700332e-02
-6.4532853e-02
-6.0753595e-02
-5.4110104e-02
-4.5475814e-02
-3.5313306e-02
-2.2788145e-02
-7.8327993e-03
9.0671040e-03
2.6208317e-02
4.1605954e-02
5.4069001e-02
6.2807593e-02
6.7687015e-02
6.7612413e-02
6.1216569e-02
4.9725045e-02
3.6591611e-02
2.3197757e-02
8.1998523e-03
-8.2721962e-03
-2.4607968e-02
-3.9870386e-02
-5.4035201e-02
-6.7716832e-02
-8.0130295e-02
-9.0201493e-02
-9.8216041e-02
-1.0410396e-01
-1.0732028e-01
-1.0695182e-01
-1.0295035e-01
-9.6292578e-02
-8.7764878e-02
-7.7694950e-02
-6.5740832e-02
-5.2845075e-02
-3.9415629e-02
-2.4422182e-02
-7.5237375e-03
1.3405729e-02
3.6382407e-02
5.4246252e-02
6.4368129e-02
6.7445447e-02
6.5640836e-02
6.1553374e-02
5.5838577e-02
4.9399931e-02
4.3404270e-02
3.8430026e-02
3.3682500e-02
2.9086156e-02
2.5955829e-02
2.3246324e-02
1.9965563e-02
1.6687819e-02
1.3819183e-02
1.1456742e-02
8.9181263e-03
6.1451654e-03
3.4254487e-03
8.7446288e-04
-1.1317670e-03
-2.5102874e-03
-2.2569934e-03
-1.0824739e-03
-6.0030755e-04
-1.1155645e-05
2.7340151e-04
-4.7180848e-04
-1.4299572e-03
-2.1241237e-03
-2.6469393e-03
-2.9821814e-03
-3.0234286e-03
-3.0955399e-03
-2.5299207e-03
-2.3533228e-04
2.8993800e-03
6.6812441e-03
1.2300022e-02
2.0474966e-02
3.1965972e-02
4.6227304e-02
6.1629967e-02
7.5719474e-02
8.5277289e-02
8.7658960e-02
8.0836791e-02
6.3233694e-02
3.5416782e-02
3.2676326e-03
-2.6716627e-02
-5.2187224e-02
-7.2540186e-02
-8.8559586e-02
-1.0019244e-01
-1.0661984e-01
-1.0801714e-01
-1.0368693e-01
-9.4268905e-02
-8.1038839e-02
-6.4665530e-02
-4.7458915e-02
-3.2015306e-02
-2.1323929e-02
-1.7495381e-02
-2.0237664e-02
-2.8888505e-02
-4.1726784e-02
-5.5855030e-02
-6.8131932e-02
-7.6053090e-02
-7.7553982e-02
-6.9703860e-02
-5.3777110e-02
-3.4933823e-02
-1.5501434e-02
4.0421747e-03
2.3002529e-02
4.0317572e-02
5.6100166e-02
7.1283581e-02
8.6019094e-02
1.0058021e-01
1.1473850e-01
1.2899115e-01
1.4411551e-01
1.5920305e-01
1.7246660e-01
1.8278834e-01
1.9159233e-01
1.9962705e-01
2.0545176e-01
2.0775691e-01
2.0397395e-01
1.9200395e-01
1.7065364e-01
1.3816808e-01
9.2171588e-02
3.8313223e-02
-8.5201854e-03
-4.2610555e-02
-6.6866801e-02
-8.4409336e-02
-9.8037800e-02
-1.0802555e-01
-1.1484492e-01
-1.1958432e-01
-1.2217950e-01
-1.2304114e-01
-1.2296124e-01
-1.2325993e-01
-1.2527707e-01
-1.2841455e-01
-1.3211089e-01
-1.3541708e-01
-1.3765673e-01
-1.3780042e-01
-1.3205717e-01
-1.1874400e-01
-9.8208084e-02
-7.0528871e-02
-3.6645689e-02
1.9320861e-03
3.9287590e-02
6.7034459e-02
8.1690235e-02
8.4667447e-02
7.9439114e-02
6.9429247e-02
5.7526566e-02
4.5380561e-02
3.4722912e-02
2.7667534e-02
2.4382945e-02
2.5398633e-02
3.1441950e-02
4.1771202e-02
5.4697402e-02
6.8487444e-02
8.2059989e-02
9.2520196e-02
9.7431530e-02
9.7301197e-02
9.2551449e-02
8.3190730e-02
7.0056160e-02
5.3855430e-02
3.4450520e-02
1.4081150e-02
-2.6469544e-03
-1.4972681e-02
-2.4857659e-02
-3.2280226e-02
-3.7084845e-02
-3.9907319e-02
-4.0846595e-02
-3.9332744e-02
-3.6303489e-02
-3.4268760e-02
-3.3864773e-02
-3.4995163e-02
-3.7792025e-02
-4.1220084e-02
-4.4630385e-02
-4.7678021e-02
-4.9834327e-02
-5.0362188e-02
-4.9333289e-02
-4.8037526e-02
-4.5697386e-02
-4.0989259e-02
-3.3898457e-02
-2.5400170e-02
-1.7120991e-02
-8.8134923e-03
-5.4396348e-05
8.4720199e-03
1.6045030e-02
2.1736709e-02
2.5723449e-02
2.8055567e-02
2.8617557e-02
2.8457478e-02
2.6939121e-02
2.3180414e-02
1.7637088e-02
1.1169458e-02
4.2142945e-03
-4.2343006e-03
-1.4280315e-02
-2.4999275e-02
-3.5590753e-02
-4.5808341e-02
-5.4851510e-02
-6.1695570e-02
-6.7135353e-02
-7.1100598e-02
-7.2717972e-02
-7.2507880e-02
-7.2067093e-02
-7.3095745e-02
-7.5193484e-02
-7.7655324e-02
-8.0210735e-02
-8.2361171e-02
-8.4683772e-02
-8.6150634e-02
-8.5832790e-02
-8.4516651e-02
-8.2082597e-02
-7.8413505e-02
-7.2906980e-02
-6.5364620e-02
-5.6148906e-02
-4.5410739e-02
-3.4892881e-02
-2.4677406e-02
-1.3710631e-02
-2.5524266e-03
7.8793219e-03
1.6391410e-02
2.3344785e-02
2.9676254e-02
3.6076328e-02
4.2752685e-02
4.7912827e-02
5.0565131e-02
5.0478877e-02
4.7911748e-02
4.4286486e-02
4.0242122e-02
3.6608792e-02
3.4112000e-02
3.2692995e-02
3.2525035e-02
3.2830633e-02
3.2726530e-02
3.1607555e-02
2.9949542e-02
2.9581176e-02
2.9912302e-02
2.9941834e-02
2.9711697e-02
2.9088792e-02
2.8595935e-02
2.8499840e-02
2.8970781e-02
2.9393498e-02
2.9622073e-02
3.0893335e-02
3.3036600e-02
3.5422990e-02
3.7627759e-02
3.9714184e-02
4.1589464e-02
4.1777152e-02
4.0803542e-02
3.9530952e-02
3.8129989e-02
3.7831274e-02
3.7993614e-02
3.7891130e-02
3.7118454e-02
3.5234142e-02
3.2712356e-02
2.8369879e-02
2.1825915e-02
1.4367978e-02
7.4011074e-03
2.2589661e-03
-4.8110535e-04
1.9978382e-04
4.9150452e-03
1.2111720e-02
1.8941225e-02
2.2849655e-02
2.3731090e-02
2.2947521e-02
2.0975741e-02
1.8126804e-02
1.4018611e-02
9.5444060e-03
6.6458179e-03
5.5894491e-03
5.1582074e-03
3.8034171e-03
2.4013043e-03
2.5311641e-03
4.6926631e-03
9.3943657e-03
1.5847943e-02
2.3095194e-02
3.0757491e-02
3.7906036e-02
4.3936655e-02
4.8195234e-02
5.0138132e-02
4.8879044e-02
4.5062667e-02
4.1393051e-02
3.7857748e-02
3.2851837e-02
2.5563277e-02
1.6259068e-02
6.3214991e-03
-3.3976143e-03
-1.2839200e-02
-2.2520463e-02
-3.1875376e-02
-3.9452041e-02
-4.5643030e-02
-5.1568865e-02
-5.7876214e-02
-6.3756589e-02
-6.8262019e-02
-7.3003215e-02
-7.8751738e-02
-8.4013839e-02
-8.7107864e-02
-8.8361598e-02
-8.8364050e-02
-8.5300451e-02
-7.7880002e-02
-6.7175956e-02
-5.6588719e-02
-4.8178049e-02
-4.1586641e-02
-3.6802791e-02
-3.2837570e-02
-2.8801804e-02
-2.5244456e-02
-2.2008167e-02
-1.8503800e-02
-1.3903038e-02
-7.9407384e-03
-1.3138561e-03
5.9433064e-03
1.2823116e-02
1.8494220e-02
2.3433855e-02
2.7481784e-02
3.0725542e-02
3.3001856e-02
3.3472716e-02
3.2224148e-02
3.0071430e-02
2.7761214e-02
2.6208239e-02
2.6105163e-02
2.6544135e-02
2.6928562e-02
2.7808394e-02
2.8595551e-02
2.8943085e-02
2.8349072e-02
2.6067132e-02
2.2636882e-02
1.7481852e-02
1.0546387e-02
2.7210195e-03
-5.0414867e-03
-1.0329759e-02
-1.2679070e-02
-1.2741316e-02
-1.0536993e-02
-7.0199023e-03
-3.4429927e-03
-5.7703930e-04
2.4807022e-03
5.5166477e-03
6.8285682e-03
6.1990208e-03
2.6802581e-03
-2.7707942e-03
-6.8197211e-03
-8.6486980e-03
-8.6683435e-03
-7.4565845e-03
-4.4068600e-03
1.2220887e-03
7.9412747e-03
1.4413707e-02
1.9770487e-02
2.4454777e-02
2.9061914e-02
3.2458475e-02
3.4142378e-02
3.4319241e-02
3.4011081e-02
3.3685084e-02
3.2691418e-02
3.1117006e-02
2.8034306e-02
2.3278653e-02
1.7400818e-02
9.3604750e-03
-1.2967887e-03
-1.5355681e-02
-3.1054821e-02
-4.3518035e-02
-5.0390686e-02
-5.2202604e-02
-5.0734302e-02
-4.6443989e-02
-4.0165582e-02
-3.3581830e-02
-2.6551314e-02
-1.9534762e-02
-1.2830566e-02
-5.8163972e-03
1.0837075e-03
7.5891792e-03
1.4052591e-02
2.0826819e-02
2.7945354e-02
3.5230664e-02
4.2093233e-02
4.7160937e-02
5.0778012e-02
5.3556882e-02
5.4013016e-02
5.0576032e-02
4.0992208e-02
2.6578009e-02
1.2860325e-02
2.4828718e-03
-4.7214386e-03
-9.8801161e-03
-1.2776446e-02
-1.2722593e-02
-9.9549468e-03
-5.2613733e-03
-8.2974254e-04
3.2655727e-03
7.6396775e-03
1.1552224e-02
1.4781064e-02
1.7036606e-02
1.8911795e-02
2.0870771e-02
2.2685928e-02
2.4641389e-02
2.6166818e-02
2.6744684e-02
2.6250887e-02
2.4027058e-02
1.8579623e-02
7.8887702e-03
-5.1928361e-03
-1.4690420e-02
-1.9567889e-02
-2.1378282e-02
-2.1436599e-02
-2.0599162e-02
-1.9708180e-02
-2.0137952e-02
-2.0904423e-02
-2.0548957e-02
-1.8577844e-02
-1.4685810e-02
-9.0863362e-03
-2.0828727e-03
4.7038787e-03
1.0105067e-02
1.4501115e-02
1.8076111e-02
2.0623618e-02
2.1209525e-02
1.9122168e-02
1.4705334e-02
9.0094661e-03
2.9406173e-03
-2.8729956e-03
-6.9233094e-03
-9.5184353e-03
-1.2815881e-02
-1.7973923e-02
-2.5931859e-02
-3.5110122e-02
-4.3079355e-02
-4.9456778e-02
-5.3882621e-02
-5.6592279e-02
-5.7623595e-02
-5.7352835e-02
-5.6404649e-02
-5.4913048e-02
-5.3931388e-02
-5.3351020e-02
-5.2087109e-02
-4.9886774e-02
-4.7107918e-02
-4.3923143e-02
-3.9761486e-02
-3.3923502e-02
-2.6004948e-02
-1.6398422e-02
-5.7646162e-03
5.8407517e-03
1.7290038e-02
2.7227172e-02
3.5466116e-02
4.1080384e-02
4.3352262e-02
4.3040109e-02
4.2223754e-02
4.2371925e-02
4.2436972e-02
4.2006000e-02
4.1432262e-02
4.1044828e-02
4.1541296e-02
4.2027451e-02
4.2466735e-02
4.3696037e-02
4.5770096e-02
4.8580824e-02
5.0735894e-02
5.1553864e-02
5.1276008e-02
4.9991546e-02
4.7316688e-02
4.1700778e-02
3.3523920e-02
2.4428015e-02
1.5246204e-02
5.7686322e-03
-4.8108407e-03
-1.4891803e-02
-2.3757203e-02
-3.2634717e-02
-4.1325218e-02
-4.9495648e-02
-5.7376666e-02
-6.5556931e-02
-7.3703156e-02
-8.1896083e-02
-9.1148496e-02
-9.9742021e-02
-1.0487937e-01
-1.0460771e-01
-9.9763862e-02
-9.3835836e-02
-8.6615968e-02
-7.4740152e-02
-5.4652085e-02
-2.4373515e-02
1.3513814e-02
5.1788919e-02
8.1564880e-02
9.9087740e-02
1.0674338e-01
1.0850275e-01
1.0843911e-01
1.0849692e-01
1.0835576e-01
1.0702232e-01
1.0290218e-01
9.4539199e-02
7.9806577e-02
5.7939792e-02
3.1417246e-02
4.6035497e-03
-1.7432099e-02
-3.2599002e-02
-4.0573819e-02
-4.1254058e-02
-3.6195025e-02
-2.6527406e-02
-1.4992493e-02
-5.0290870e-03
1.7332869e-03
3.6262994e-03
2.1032841e-03
5.2813859e-04
-3.0714693e-04
-1.3974909e-03
-3.5919260e-03
-7.4038254e-03
-1.5380978e-02
-2.9101038e-02
-4.7841604e-02
-7.1143874e-02
-9.5623240e-02
-1.1634438e-01
-1.3071340e-01
-1.3733719e-01
-1.3582034e-01
-1.2701873e-01
-1.1275333e-01
-9.4344227e-02
-7.2282624e-02
-4.6925509e-02
-1.8592436e-02
1.0636792e-02
3.9922447e-02
7.0906797e-02
1.0507778e-01
1.4212393e-01
1.7694590e-01
2.0452431e-01
2.2285561e-01
2.3009683e-01
2.2587068e-01
2.0941888e-01
1.7970374e-01
1.3876765e-01
9.1046498e-02
4.2438597e-02
-1.4543538e-03
-3.6098958e-02
-5.8898760e-02
-7.0074228e-02
-6.9982431e-02
-6.0110426e-02
-4.3850375e-02
-2.6262888e-02
-1.3189893e-02
-6.6627609e-03
-5.9017648e-03
-1.0195992e-02
-2.0267420e-02
-3.8152191e-02
-6.0150744e-02
-7.7774650e-02
-8.7360762e-02
-9.0542428e-02
-8.9554926e-02
-8.5750661e-02
-8.0809135e-02
-7.4961945e-02
-6.8596542e-02
-6.4179233e-02
-6.1804022e-02
-6.0390435e-02
-5.9053084e-02
-5.7420277e-02
-5.6454382e-02
-5.6099669e-02
-5.5925221e-02
-5.5167234e-02
-5.3561060e-02
-5.1701759e-02
-4.8373393e-02
-4.3034864e-02
-3.6153766e-02
-2.6695730e-02
-1.3991065e-02
3.2278205e-04
1.2771929e-02
2.1949253e-02
2.8039313e-02
3.0265552e-02
2.9704511e-02
2.7281415e-02
2.3038978e-02
1.7853007e-02
1.1504938e-02
4.7604080e-03
-5.2014977e-04
-3.1131264e-03
-3.0256627e-03
-1.4250900e-03
1.7465389e-03
6.9906144e-03
1.4078427e-02
2.1580546e-02
2.8015553e-02
3.3584213e-02
3.8381413e-02
4.1955757e-02
4.2596220e-02
3.7828318e-02
2.8881932e-02
1.9014709e-02
9.0278222e-03
-1.2725763e-03
-1.1608355e-02
-2.1553436e-02
-3.0640380e-02
-3.7212797e-02
-3.9526384e-02
-3.7780934e-02
-3.2485133e-02
-2.4302681e-02
-1.3824970e-02
-1.0683014e-03
1.3332976e-02
2.7847019e-02
4.0932733e-02
5.2770481e-02
6.2677288e-02
6.8125381e-02
6.8823017e-02
6.4967097e-02
5.6613794e-02
4.4128178e-02
2.6296553e-02
5.0888236e-03
-1.4342355e-02
-2.9515331e-02
-4.0336888e-02
-4.7649172e-02
-5.2740719e-02
-5.6663225e-02
-5.9591493e-02
-6.1904646e-02
-6.4397429e-02
-6.7435264e-02
-7.1353541e-02
-7.4517177e-02
-7.6234090e-02
-7.7623667e-02
-7.8311689e-02
-7.8502968e-02
-7.6957982e-02
-7.2262101e-02
-6.5899256e-02
-5.7884655e-02
-4.7066540e-02
-3.2857454e-02
-1.4433048e-02
9.5800613e-03
3.6566615e-02
5.8204920e-02
7.1231317e-02
7.8294126e-02
8.1297349e-02
8.1140079e-02
7.7670296e-02
7.2252099e-02
6.6812139e-02
6.1761934e-02
5.7490229e-02
5.4158228e-02
5.2244523e-02
5.2345567e-02
5.3989261e-02
5.5564472e-02
5.5164701e-02
5.2435094e-02
4.8007424e-02
4.2173844e-02
3.5901516e-02
2.9985718e-02
2.5050777e-02
2.2317482e-02
2.2392292e-02
2.4296849e-02
2.5495858e-02
2.4957451e-02
2.2957664e-02
1.9305786e-02
1.4462399e-02
8.7034997e-03
2.4604503e-03
-3.8342566e-03
-1.0308036e-02
-1.6212937e-02
-2.1868815e-02
-2.8187772e-02
-3.4821961e-02
-4.1292051e-02
-4.6786292e-02
-5.0794511e-02
-5.2557798e-02
-5.2458174e-02
-5.2569560e-02
-5.3054332e-02
-5.3239982e-02
-5.2162455e-02
-4.8245214e-02
-4.0545735e-02
-3.0055950e-02
-2.0153181e-02
-1.2416300e-02
-6.1475588e-03
1.5017172e-04
7.4158966e-03
1.4550434e-02
2.1464488e-02
2.8277506e-02
3.4595040e-02
4.0747199e-02
4.6412159e-02
5.0909060e-02
5.3420380e-02
5.3446416e-02
5.0904459e-02
4.5601339e-02
3.8679047e-02
3.1294914e-02
2.3141843e-02
1.3742599e-02
3.0614684e-03
-7.5658586e-03
-1.6928942e-02
-2.4987302e-02
-3.1671336e-02
-3.7191570e-02
-4.1233626e-02
-4.3576891e-02
-4.4823726e-02
-4.5624492e-02
-4.6381812e-02
-4.6288561e-02
-4.5113848e-02
-4.3534346e-02
-4.1458439e-02
-3.8852461e-02
-3.4420129e-02
-2.7806775e-02
-2.1111859e-02
-1.4729446e-02
-8.5958171e-03
-2.9573683e-03
2.3772452e-03
7.3079043e-03
1.2016256e-02
1.6775940e-02
2.1913187e-02
2.6725024e-02
3.0078204e-02
3.2387892e-02
3.4408722e-02
3.6102446e-02
3.6558824e-02
3.5510813e-02
3.3697757e-02
3.0776479e-02
2.6833309e-02
2.2637852e-02
1.7975536e-02
1.2521033e-02
6.2196613e-03
-4.9436090e-04
-6.6582590e-03
-1.2195645e-02
-1.8392968e-02
-2.6010091e-02
-3.3845415e-02
-4.0635812e-02
-4.5670231e-02
-4.8055349e-02
-4.7635788e-02
-4.3654748e-02
-3.4747350e-02
-1.9727258e-02
-4.6142437e-04
1.6701998e-02
2.9288075e-02
3.9561874e-02
4.8625961e-02
5.6185066e-02
6.2301980e-02
6.8552868e-02
7.4763176e-02
7.9701885e-02
8.3354157e-02
8.5366460e-02
8.6357380e-02
8.6394487e-02
8.4948173e-02
8.2488056e-02
7.8994111e-02
7.4955418e-02
7.0491300e-02
6.4972656e-02
5.8203072e-02
4.9184157e-02
3.7836603e-02
2.3918765e-02
5.0845751e-03
-1.6445465e-02
-3.4388111e-02
-4.6685430e-02
-5.5207833e-02
-6.0525538e-02
-6.2358194e-02
-6.2469760e-02
-6.1409978e-02
-5.8275650e-02
-5.2296714e-02
-4.3987576e-02
-3.5793565e-02
-2.7216003e-02
-1.6665978e-02
-5.2653838e-03
5.0843958e-03
1.3907738e-02
2.2506281e-02
3.1027110e-02
3.8066537e-02
4.2977469e-02
4.5830896e-02
4.6340232e-02
4.3047180e-02
3.5691983e-02
2.6277585e-02
1.5921336e-02
5.2771845e-03
-5.7130354e-03
-1.6924589e-02
-2.7158743e-02
-3.6366858e-02
-4.3942151e-02
-5.0209673e-02
-5.5545708e-02
-5.8101718e-02
-5.7026593e-02
-5.2395621e-02
-4.4648863e-02
-3.4415648e-02
-2.3079026e-02
-1.3200901e-02
-5.2892377e-03
1.5777885e-03
7.7406949e-03
1.3197530e-02
1.6687160e-02
1.7316135e-02
1.4427675e-02
7.0185511e-03
-2.7672036e-03
-1.0751485e-02
-1.4956366e-02
-1.5729522e-02
-1.3304094e-02
-8.2720390e-03
-1.8754041e-03
5.3795090e-03
1.2316308e-02
1.8414760e-02
2.4533620e-02
3.0754018e-02
3.6432567e-02
4.0477891e-02
4.3038541e-02
4.4943715e-02
4.5991384e-02
4.5688761e-02
4.2772421e-02
3.7230367e-02
3.0214989e-02
2.1662744e-02
1.2073350e-02
1.7625111e-03
-9.5473753e-03
-2.0228504e-02
-2.8406508e-02
-3.3111166e-02
-3.4956934e-02
-3.7111540e-02
-4.1061109e-02
-4.5060877e-02
-4.7363579e-02
-4.8430077e-02
-4.8716498e-02
-4.7763934e-02
-4.5642048e-02
-4.2033516e-02
-3.7484190e-02
-3.1975087e-02
-2.4984277e-02
-1.8011878e-02
-1.1739193e-02
-5.6597072e-03
7.1555650e-04
7.0174565e-03
1.1856126e-02
1.5056423e-02
1.6775763e-02
1.7969437e-02
1.9280405e-02
1.9267565e-02
1.7645907e-02
1.5144939e-02
1.2312574e-02
8.8331162e-03
4.8105107e-03
7.6923073e-04
-4.8023867e-03
-1.2834896e-02
-2.3370579e-02
-3.6642182e-02
-5.1144594e-02
-6.4357439e-02
-7.4246297e-02
-7.9667192e-02
-8.1165080e-02
-7.9929233e-02
-7.6262273e-02
-7.0218039e-02
-6.2588620e-02
-5.2801243e-02
-3.9585716e-02
-2.4848546e-02
-9.1614918e-03
7.3282425e-03
2.0725548e-02
2.9703002e-02
3.5275015e-02
3.7848113e-02
3.8297236e-02
3.8434614e-02
3.9872109e-02
4.1525888e-02
4.2651511e-02
4.3727501e-02
4.3861460e-02
4.2194719e-02
3.8647874e-02
3.5049089e-02
3.2856611e-02
3.0662617e-02
2.7359530e-02
2.1963327e-02
1.4676486e-02
7.1463340e-03
3.8802112e-04
-4.8525917e-03
-8.3474400e-03
-9.0117053e-03
-7.5639399e-03
-6.6430347e-03
-6.7285186e-03
-8.1262702e-03
-1.0640274e-02
-1.2800570e-02
-1.3300550e-02
-1.2215276e-02
-1.1082457e-02
-9.7575937e-03
-7.6273456e-03
-5.3323336e-03
-3.8691362e-03
-4.0789509e-03
-3.9490437e-03
-1.2870081e-03
3.0025275e-03
7.3331912e-03
1.0178185e-02
1.1311336e-02
1.1617296e-02
1.1643652e-02
1.1296533e-02
1.0037324e-02
8.3192447e-03
6.4478003e-03
4.8762232e-03
4.3793146e-03
4.6593940e-03
5.8030461e-03
7.7252459e-03
1.0019119e-02
1.2496851e-02
1.3832830e-02
1.2996273e-02
1.0215107e-02
6.7979796e-03
4.0390084e-03
1.6403280e-03
5.7861331e-05
4.7694218e-04
2.8140173e-03
6.3025556e-03
1.0311822e-02
1.4706771e-02
1.8643571e-02
2.1398241e-02
2.3233162e-02
2.3633373e-02
2.1582441e-02
1.7528555e-02
1.3724640e-02
1.1354759e-02
9.8867206e-03
9.3887494e-03
8.8986501e-03
6.6578762e-03
3.0672673e-03
-1.4566557e-03
-6.2814047e-03
-1.0411081e-02
-1.4248260e-02
-1.8125948e-02
-2.1648545e-02
-2.4337349e-02
-2.7315920e-02
-3.1302820e-02
-3.5587930e-02
-3.9641402e-02
-4.2180660e-02
-4.2758642e-02
-4.1444283e-02
-3.7333268e-02
-2.9572335e-02
-1.7263159e-02
-3.1747241e-03
7.3022798e-03
1.2673349e-02
1.4340456e-02
1.4152345e-02
1.3184594e-02
1.2036916e-02
1.0711823e-02
7.9983560e-03
4.0092611e-03
-8.5777761e-04
-6.1671584e-03
-1.0568705e-02
-1.3854069e-02
-1.5567135e-02
-1.5528851e-02
-1.4672665e-02
-1.2762467e-02
-9.4523567e-03
-5.4646096e-03
-1.7881394e-03
2.0190033e-03
7.1145946e-03
1.3202688e-02
2.0379112e-02
2.8169119e-02
3.4073404e-02
3.6328788e-02
3.4608701e-02
2.9762686e-02
2.3144984e-02
1.5572413e-02
6.3730992e-03
-4.8062642e-03
-1.6233087e-02
-2.7052309e-02
-3.6525425e-02
-4.2914560e-02
-4.5587832e-02
-4.4936550e-02
-4.2904989e-02
-4.0650550e-02
-3.7413315e-02
-3.3407003e-02
-2.8851807e-02
-2.4074465e-02
-1.8757357e-02
-1.2104320e-02
-4.7889055e-03
2.8250992e-03
1.0110016e-02
1.7536026e-02
2.6174513e-02
3.4485106e-02
4.1181331e-02
4.5905855e-02
4.8775768e-02
5.0246853e-02
5.0536275e-02
5.0611534e-02
5.0075191e-02
4.8034173e-02
4.4354643e-02
3.9024987e-02
3.2836829e-02
2.5375207e-02
1.6753945e-02
7.8705881e-03
-1.4520864e-03
-1.0074322e-02
-1.7117698e-02
-2.2411629e-02
-2.5246874e-02
-2.4982807e-02
-2.1042390e-02
-1.5283174e-02
-9.9341096e-03
-5.2519541e-03
-1.2518243e-03
2.8180748e-03
7.2514920e-03
1.1993820e-02
1.7289029e-02
2.2135906e-02
2.5771372e-02
2.9084765e-02
3.3954568e-02
3.9886419e-02
4.4318130e-02
4.6927322e-02
4.7842961e-02
4.6975808e-02
4.4438714e-02
4.0095663e-02
3.4991740e-02
2.9850946e-02
2.4198231e-02
1.6867510e-02
7.1634711e-03
-4.2963972e-03
-1.5486569e-02
-2.2973938e-02
-2.6894436e-02
-2.9553136e-02
-3.1062331e-02
-3.2289026e-02
-3.3065619e-02
-3.2780654e-02
-3.1788359e-02
-2.9316991e-02
-2.5761550e-02
-2.2144968e-02
-1.8876112e-02
-1.5778342e-02
-1.2406720e-02
-8.4070798e-03
-2.7468778e-03
4.0790778e-03
1.0595397e-02
1.6643678e-02
2.1896492e-02
2.5785694e-02
2.8362443e-02
2.9984001e-02
3.0696850e-02
3.0150484e-02
2.8255120e-02
2.4259680e-02
1.8343403e-02
1.2009901e-02
5.0895481e-03
-1.9999094e-03
-7.8369851e-03
-1.2032888e-02
-1.5343398e-02
-1.8903408e-02
-2.1631845e-02
-2.3060906e-02
-2.3652607e-02
-2.3029218e-02
-2.2717789e-02
-2.2624470e-02
-2.1394848e-02
-1.9072162e-02
-1.5577824e-02
-1.2376015e-02
-9.8921947e-03
-7.7943154e-03
-6.7636616e-03
-7.3201586e-03
-9.4974025e-03
-1.1010968e-02
-1.0755806e-02
-9.4692523e-03
-7.4824525e-03
-5.4186415e-03
-3.2142184e-03
-6.7109156e-04
2.9909540e-03
8.2781414e-03
1.3556898e-02
1.8034080e-02
2.1636108e-02
2.4415018e-02
2.7332389e-02
2.9777007e-02
3.0192554e-02
2.7342681e-02
2.1505523e-02
1.4420907e-02
6.5231068e-03
-2.1576760e-03
-1.1052722e-02
-1.9296037e-02
-2.6292800e-02
-3.1587289e-02
-3.4638494e-02
-3.6409400e-02
-3.7505855e-02
-3.8215784e-02
-3.9230631e-02
-3.9102397e-02
-3.7654533e-02
-3.6221046e-02
-3.4293967e-02
-3.2033353e-02
-2.9655534e-02
-2.6657569e-02
-2.3062797e-02
-1.9278107e-02
-1.5393932e-02
-1.0881400e-02
-5.8682672e-03
-5.0118136e-04
5.0067786e-03
1.0327719e-02
1.5279086e-02
1.8488463e-02
1.9717225e-02
1.9984099e-02
1.9236881e-02
1.7845448e-02
1.6213535e-02
1.5516056e-02
1.6552689e-02
1.7648781e-02
1.8460780e-02
1.9297062e-02
1.9617891e-02
1.9131677e-02
1.7634784e-02
1.5515684e-02
1.2090702e-02
6.5693590e-03
-3.2959392e-04
-7.7730966e-03
-1.4778900e-02
-2.1149190e-02
-2.6729725e-02
-3.0750913e-02
-3.2963460e-02
-3.3478961e-02
-3.2691831e-02
-3.0244466e-02
-2.6515693e-02
-2.2910949e-02
-1.9721198e-02
-1.7080527e-02
-1.4329972e-02
-1.1044414e-02
-8.5509114e-03
-7.4385047e-03
-8.2016468e-03
-1.0341259e-02
-1.1727949e-02
-1.2001727e-02
-1.1693149e-02
-1.1201494e-02
-1.0233710e-02
-8.4485653e-03
-5.9681146e-03
-2.1524333e-03
2.1497509e-03
5.9525614e-03
9.4777664e-03
1.3095835e-02
1.7416613e-02
2.1987726e-02
2.6049607e-02
2.9011032e-02
3.1208486e-02
3.4175757e-02
3.7802751e-02
4.1218607e-02
4.3797193e-02
4.4912000e-02
4.3733628e-02
3.8205225e-02
2.8171227e-02
1.5409406e-02
1.6777378e-03
-1.1292124e-02
-2.2778989e-02
-3.1481672e-02
-3.6174364e-02
-3.6926967e-02
-3.4644225e-02
-3.1424462e-02
-2.8153864e-02
-2.4622478e-02
-2.1049822e-02
-1.7509547e-02
-1.5151588e-02
-1.4806268e-02
-1.6412715e-02
-1.9081065e-02
-2.0682148e-02
-2.1381479e-02
-2.2316430e-02
-2.3133449e-02
-2.2851457e-02
-2.1350214e-02
-1.9136973e-02
-1.5559356e-02
-1.0334929e-02
-4.7718355e-03
-7.5874392e-04
1.5682203e-03
4.1002030e-03
6.6951830e-03
8.0346051e-03
9.0472061e-03
1.0126483e-02
1.0819959e-02
1.1295849e-02
1.2310002e-02
1.4194441e-02
1.5731932e-02
1.6938609e-02
1.8453354e-02
1.9937620e-02
2.0361859e-02
1.7799563e-02
1.2688491e-02
6.9127505e-03
1.3623339e-03
-3.0770943e-03
-6.5856588e-03
-9.2445239e-03
-1.1085984e-02
-1.2265788e-02
-1.2899861e-02
-1.4217103e-02
-1.5484532e-02
-1.5563577e-02
-1.4618923e-02
-1.3122101e-02
-1.2360598e-02
-1.2002370e-02
-1.1210741e-02
-9.5797544e-03
-6.4898756e-03
-2.2031895e-03
2.7179468e-03
7.2307742e-03
1.1153035e-02
1.4736144e-02
1.7119901e-02
1.8844106e-02
2.0390030e-02
2.1592149e-02
2.2271367e-02
2.1705306e-02
2.1151080e-02
2.0930257e-02
2.0004084e-02
1.9267633e-02
1.9339389e-02
1.9209474e-02
1.8058001e-02
1.6771996e-02
1.5295444e-02
1.2144848e-02
7.5883582e-03
2.6807237e-03
-1.7059248e-03
-5.1731685e-03
-7.8897113e-03
-9.6166175e-03
-9.7478488e-03
-8.1830303e-03
-6.5507334e-03
-5.9861138e-03
-6.5158943e-03
-8.5963432e-03
-1.1284117e-02
-1.3511369e-02
-1.5824719e-02
-1.8636197e-02
-2.1949145e-02
-2.4978905e-02
-2.6807912e-02
-2.8021088e-02
-2.9387248e-02
-3.0778343e-02
-3.1409435e-02
-3.1335311e-02
-3.0877730e-02
-2.8860491e-02
-2.5367061e-02
-2.1622717e-02
-1.8204532e-02
-1.4488443e-02
-9.1828389e-03
-2.5019128e-03
4.9524370e-03
1.1923256e-02
1.7296698e-02
2.1658511e-02
2.4750202e-02
2.7042784e-02
2.9405384e-02
3.1246926e-02
3.2904938e-02
3.4233330e-02
3.4660080e-02
3.4079299e-02
3.2532045e-02
2.9875927e-02
2.5054357e-02
1.9114246e-02
1.3832742e-02
8.9385969e-03
4.3041637e-03
3.2788743e-04
-2.5151829e-03
-4.3735532e-03
-5.4042381e-03
-5.0696469e-03
-3.9924304e-03
-2.9657426e-03
-2.5458709e-03
-2.8247862e-03
-3.0028096e-03
-3.6974709e-03
-5.0029496e-03
-5.1222061e-03
-3.5600202e-03
-1.2386257e-03
1.0280828e-03
3.5516417e-03
6.9651138e-03
1.0891833e-02
1.5410772e-02
2.0593440e-02
2.6424194e-02
3.2546252e-02
3.8175104e-02
4.3703816e-02
4.8748680e-02
5.2101221e-02
5.2715684e-02
5.0378901e-02
4.4967601e-02
3.5088023e-02
2.2713935e-02
1.2202313e-02
4.5951773e-03
-1.5936487e-03
-7.5405314e-03
-1.2923610e-02
-1.7438122e-02
-2.1173728e-02
-2.4175735e-02
-2.7407060e-02
-3.1503962e-02
-3.6000028e-02
-3.9418686e-02
-4.0638181e-02
-4.0492580e-02
-4.0166296e-02
-4.0240565e-02
-4.0153127e-02
-3.9709171e-02
-3.9507140e-02
-3.8710032e-02
-3.7158288e-02
-3.5010811e-02
-3.1651029e-02
-2.6929489e-02
-2.1213824e-02
-1.5827090e-02
-1.0639691e-02
-5.1250679e-03
-7.0635711e-04
2.4740756e-03
5.3317590e-03
8.4340465e-03
1.1720245e-02
1.4622041e-02
1.7430288e-02
2.0079717e-02
2.3066109e-02
2.7365364e-02
3.2597261e-02
3.8517153e-02
4.4298800e-02
4.8764565e-02
5.1502052e-02
5.1961260e-02
5.0675197e-02
4.8269280e-02
4.4425430e-02
3.8520398e-02
2.9982231e-02
1.9947631e-02
9.5845956e-03
-4.3361409e-04
-9.0047987e-03
-1.5741082e-02
-2.0513554e-02
-2.3899969e-02
-2.6230090e-02
-2.7358085e-02
-2.8139606e-02
-2.9682607e-02
-3.3180043e-02
-3.7831502e-02
-4.1884088e-02
-4.5946363e-02
-5.0388917e-02
-5.3996896e-02
-5.5560500e-02
-5.5325205e-02
-5.3816758e-02
-5.0297537e-02
-4.4833306e-02
-3.7298507e-02
-2.6756583e-02
-1.2324779e-02
4.6908366e-03
1.9276595e-02
2.9177263e-02
3.5592945e-02
4.0468891e-02
4.5502498e-02
4.9453403e-02
5.1884219e-02
5.3479223e-02
5.3746523e-02
5.2960266e-02
5.1297886e-02
4.8603625e-02
4.5401344e-02
4.1978950e-02
3.8045779e-02
3.3176955e-02
2.7210227e-02
2.0322818e-02
1.4123399e-02
1.0415907e-02
7.8320234e-03
4.7227953e-03
1.8033907e-03
-4.3082938e-04
-2.5572081e-03
-4.7594827e-03
-6.4995060e-03
-8.2928824e-03
-1.0388235e-02
-1.2530814e-02
-1.5804779e-02
-1.9506172e-02
-2.2989276e-02
-2.7673084e-02
-3.4050709e-02
-4.2361819e-02
-5.1283964e-02
-5.8044965e-02
-6.1306897e-02
-6.0591110e-02
-5.6217842e-02
-4.8691568e-02
-3.9004396e-02
-2.8987777e-02
-1.9760923e-02
-1.1777913e-02
-4.0654276e-03
3.9613929e-03
1.3172306e-02
2.3923926e-02
3.2573619e-02
3.7847780e-02
4.1506046e-02
4.3794600e-02
4.4364210e-02
4.2561061e-02
3.8589891e-02
3.3495852e-02
2.8374040e-02
2.3642015e-02
1.8765630e-02
1.3976930e-02
9.0289424e-03
4.3450451e-03
9.8256229e-04
-1.7038771e-03
-3.4686282e-03
-4.3711305e-03
-5.7870515e-03
-8.1433893e-03
-1.1250633e-02
-1.4747464e-02
-1.8933163e-02
-2.3522392e-02
-2.7421976e-02
-3.0565630e-02
-3.2537218e-02
-3.3154812e-02
-3.2714864e-02
-3.1710386e-02
-3.0808863e-02
-2.8505608e-02
-2.3710431e-02
-1.7273165e-02
-1.0725474e-02
-5.3530671e-03
-1.3085972e-04
5.6440256e-03
1.1645026e-02
1.8105615e-02
2.4259385e-02
2.8926084e-02
3.1793943e-02
3.3592726e-02
3.4359754e-02
3.3253305e-02
3.1030790e-02
2.8138404e-02
2.4479069e-02
2.0445500e-02
1.6684245e-02
1.4188222e-02
1.2297800e-02
1.0735912e-02
1.0097530e-02
9.7360083e-03
9.2042715e-03
8.0233158e-03
6.6070420e-03
5.6828465e-03
4.7131592e-03
3.2997796e-03
1.2719584e-03
-5.2278026e-04
-1.7573875e-03
-2.8967395e-03
-3.3861421e-03
-3.2722195e-03
-2.8416480e-03
-2.4846828e-03
-2.0183592e-03
-1.1893601e-03
-1.7291839e-03
-4.2821047e-03
-7.5565761e-03
-9.7264174e-03
-9.9448642e-03
-8.6917657e-03
-5.9011020e-03
-2.4934799e-03
7.3388270e-04
3.7196135e-03
5.4279179e-03
6.2921629e-03
6.7292710e-03
6.3957681e-03
5.4639423e-03
2.7492833e-03
-1.5623393e-03
-5.7987712e-03
-9.2571315e-03
-1.1614421e-02
-1.3726625e-02
-1.5411641e-02
-1.5906735e-02
-1.5267329e-02
-1.2584912e-02
-7.7805534e-03
-1.0089172e-03
6.2039727e-03
1.0694410e-02
1.2218444e-02
1.1547756e-02
9.6122576e-03
6.8504581e-03
3.3228372e-03
6.0697027e-04
-1.7538049e-03
-4.8485779e-03
-8.2643736e-03
-1.0906324e-02
-1.2392654e-02
-1.3809033e-02
-1.4941766e-02
-1.5632298e-02
-1.5763025e-02
-1.4380103e-02
-1.2611242e-02
-1.1434842e-02
-9.8375779e-03
-6.4650259e-03
-1.6832439e-03
2.9324424e-03
9.2560883e-03
1.7380569e-02
2.2859568e-02
2.4203471e-02
2.2347431e-02
1.9272436e-02
1.6711235e-02
1.4151646e-02
1.0963619e-02
7.3867844e-03
3.5652164e-03
-1.5271437e-03
-7.6120162e-03
-1.2766193e-02
-1.6177263e-02
-1.7768219e-02
-1.8558293e-02
-1.9133813e-02
-1.8950082e-02
-1.8865006e-02
-1.9259176e-02
-2.0207872e-02
-2.1544833e-02
-2.1720863e-02
-2.0466996e-02
-1.7699333e-02
-1.3151023e-02
-7.0619413e-03
-3.4218111e-05
6.1142150e-03
1.1022630e-02
1.5129581e-02
1.8713900e-02
2.1851145e-02
2.4020795e-02
2.6312035e-02
2.8508671e-02
2.9378393e-02
2.9348541e-02
2.8749692e-02
2.7075316e-02
2.2497930e-02
1.4572363e-02
4.9090493e-03
-6.1757421e-03
-1.7954518e-02
-2.8727185e-02
-3.6786034e-02
-4.1013750e-02
-4.1850099e-02
-4.0286028e-02
-3.8149881e-02
-3.6095234e-02
-3.3922304e-02
-3.2429606e-02
-3.1427341e-02
-3.0129228e-02
-2.7999462e-02
-2.5290104e-02
-2.2731453e-02
-1.9972158e-02
-1.6694208e-02
-1.2491086e-02
-7.4752753e-03
-3.3194600e-03
-9.5657493e-04
-4.0400646e-04
-5.8842884e-04
-2.4562538e-04
6.2662743e-04
2.3816402e-03
4.9008633e-03
7.5722764e-03
9.8364277e-03
1.1258903e-02
1.1881190e-02
1.1806463e-02
1.2874224e-02
1.6136797e-02
2.0528232e-02
2.5436292e-02
3.0288082e-02
3.5373326e-02
4.0602951e-02
4.4872141e-02
4.8087704e-02
4.9985033e-02
5.1162743e-02
5.1789500e-02
5.0521727e-02
4.8346671e-02
4.6650708e-02
4.5456123e-02
4.4025217e-02
4.2257593e-02
4.1133951e-02
3.9480513e-02
3.5761450e-02
2.8857026e-02
1.7852279e-02
2.9144457e-03
-1.4323787e-02
-2.9897738e-02
-4.1687383e-02
-4.9581912e-02
-5.3303269e-02
-5.4001168e-02
-5.2869509e-02
-5.0276555e-02
-4.6293231e-02
-4.1303049e-02
-3.6006291e-02
-3.0321093e-02
-2.5247617e-02
-2.0690683e-02
-1.5088614e-02
-9.2729937e-03
-3.4978224e-03
3.0430158e-03
9.5420234e-03
1.4571374e-02
1.7427541e-02
1.8765644e-02
1.8818137e-02
1.7595865e-02
1.5912390e-02
1.3167187e-02
9.0711985e-03
3.8895571e-03
-1.8099090e-03
-6.5045934e-03
-1.0456236e-02
-1.3935262e-02
-1.6476738e-02
-1.8233836e-02
-1.9784814e-02
-2.1892651e-02
-2.4169832e-02
-2.6186337e-02
-2.7792980e-02
-2.9160929e-02
-3.0714375e-02
-3.1960637e-02
-3.2709428e-02
-3.2498720e-02
-3.1230808e-02
-2.9956805e-02
-2.8008710e-02
-2.4558015e-02
-1.8727000e-02
-8.8701157e-03
3.4669890e-03
1.5454383e-02
2.6017590e-02
3.4313410e-02
3.9759553e-02
4.3847755e-02
4.8109422e-02
5.2297632e-02
5.7721757e-02
6.4868551e-02
7.2129542e-02
7.9584880e-02
8.6600918e-02
9.2246792e-02
9.6766334e-02
1.0019801e-01
1.0268944e-01
1.0290243e-01
1.0005076e-01
9.4370761e-02
8.5330580e-02
7.2718558e-02
5.5798161e-02
3.5101139e-02
1.0970364e-02
-1.4377373e-02
-3.4300082e-02
-4.6736149e-02
-5.3469578e-02
-5.6213468e-02
-5.7049082e-02
-5.6276165e-02
-5.5161325e-02
-5.4292726e-02
-5.1646058e-02
-4.6859554e-02
-4.0718098e-02
-3.4657409e-02
-2.9865338e-02
-2.5924326e-02
-2.2622236e-02
-2.0022654e-02
-1.8220961e-02
-1.6851435e-02
-1.5436971e-02
-1.3391907e-02
-1.0275206e-02
-6.6660453e-03
-2.2237926e-03
2.9166426e-03
7.4872341e-03
1.1229460e-02
1.3409518e-02
1.3690184e-02
1.2609617e-02
9.8198197e-03
5.5371086e-03
2.0847652e-04
-5.4772222e-03
-1.0737450e-02
-1.5020827e-02
-1.7804707e-02
-1.9695368e-02
-2.0336396e-02
-1.9026553e-02
-1.5388701e-02
-8.7358673e-03
-5.3786588e-04
7.0104888e-03
1.3093467e-02
1.7442266e-02
1.9384041e-02
1.7990418e-02
1.3406612e-02
4.9452461e-03
-6.8426732e-03
-1.9318209e-02
-3.2454369e-02
-4.6293379e-02
-6.0997563e-02
-7.7039725e-02
-9.3191032e-02
-1.0859944e-01
-1.2212480e-01
-1.3306585e-01
-1.4137331e-01
-1.4692648e-01
-1.5107996e-01
-1.5517399e-01
-1.6008278e-01
-1.6525514e-01
-1.6907617e-01
-1.7171895e-01
-1.7317886e-01
-1.7185268e-01
-1.6422003e-01
-1.4819065e-01
-1.2425515e-01
-9.0846132e-02
-4.3502775e-02
1.2452587e-02
5.8594488e-02
8.7875366e-02
1.0582953e-01
1.1553655e-01
1.2141898e-01
1.2764975e-01
1.3442244e-01
1.4081713e-01
1.4501395e-01
1.4601936e-01
1.4368537e-01
1.3841027e-01
1.3219725e-01
1.2523689e-01
1.1637039e-01
1.0582951e-01
9.4894661e-02
8.5021584e-02
7.6217195e-02
6.8666515e-02
6.2552745e-02
5.6589240e-02
4.9994911e-02
4.2338395e-02
3.5253568e-02
3.0372614e-02
2.6719351e-02
2.4062154e-02
2.2114336e-02
2.0730906e-02
2.0358945e-02
2.0376458e-02
1.9596448e-02
1.7247628e-02
1.4074135e-02
1.0203443e-02
5.1858784e-03
-7.9130223e-05
-5.1680531e-03
-9.0166872e-03
-1.1099372e-02
-1.1892485e-02
-1.1060275e-02
-9.3458355e-03
-7.1879492e-03
-5.4594094e-03
-5.7123804e-03
-7.7463028e-03
-1.0986622e-02
-1.4615642e-02
-1.8018042e-02
-2.0571234e-02
-2.1586705e-02
-2.1884165e-02
-2.1595187e-02
-2.0030088e-02
-1.7263803e-02
-1.3578227e-02
-1.0027006e-02
-6.9869312e-03
-4.0934494e-03
-1.5417881e-03
5.7941847e-04
1.4634645e-03
1.3857726e-03
1.1791428e-03
6.9800643e-04
1.2013469e-04
-9.3482812e-04
-2.7661335e-03
-5.8285371e-03
-9.5108123e-03
-1.2576085e-02
-1.6699742e-02
-2.1898955e-02
-2.5740205e-02
-2.6599530e-02
-2.4447661e-02
-2.2151961e-02
-2.1389142e-02
-2.1803723e-02
-2.3387048e-02
-2.6049241e-02
-2.8671611e-02
-2.8647322e-02
-2.4601469e-02
-1.6400149e-02
-4.9655632e-03
7.3506414e-03
1.9448420e-02
3.0041884e-02
3.7452407e-02
4.0435708e-02
3.7422625e-02
2.8995984e-02
1.7697565e-02
7.0656798e-03
4.4763381e-04
-2.4008867e-03
-3.5119271e-03
-3.6045036e-03
-3.0160792e-03
-1.8606433e-03
-2.3449186e-04
1.1983210e-03
2.1385943e-03
3.2310968e-03
4.6450920e-03
6.0223969e-03
7.9529264e-03
1.0679835e-02
1.5049890e-02
2.1259957e-02
2.7383526e-02
3.3456937e-02
3.9793844e-02
4.5765860e-02
5.1268334e-02
5.5481229e-02
5.8432399e-02
5.9984110e-02
5.8781944e-02
5.3458261e-02
4.2197936e-02
2.6486465e-02
1.0638701e-02
-3.0752553e-03
-1.4451825e-02
-2.2714387e-02
-2.6497546e-02
-2.7412000e-02
-2.6821179e-02
-2.4406564e-02
-2.1082103e-02
-1.7073835e-02
-1.2564214e-02
-8.5778052e-03
-5.8333586e-03
-3.3680955e-03
-7.6111909e-04
-5.4598994e-05
-4.5949728e-04
2.1250673e-04
1.6444229e-03
3.4147075e-03
5.2474530e-03
7.1374630e-03
8.6935141e-03
9.6289077e-03
1.1024186e-02
1.2032050e-02
1.1697196e-02
1.0595563e-02
8.7784575e-03
6.2731866e-03
2.5042585e-03
-2.1785407e-03
-7.7745312e-03
-1.4911073e-02
-2.2498237e-02
-3.0266656e-02
-3.8036581e-02
-4.5697212e-02
-5.3108097e-02
-5.9031918e-02
-6.3310677e-02
-6.5554952e-02
-6.5716452e-02
-6.4049773e-02
-6.0060992e-02
-5.4560550e-02
-4.7578434e-02
-3.8251906e-02
-2.5682185e-02
-1.0948950e-02
1.9529052e-03
1.1654314e-02
1.8399560e-02
2.2098792e-02
2.3755372e-02
2.4226121e-02
2.4283500e-02
2.3993196e-02
2.3218269e-02
2.2280795e-02
1.9787329e-02
1.5630892e-02
1.1834209e-02
9.1357935e-03
6.3628070e-03
2.0547801e-03
-3.4864694e-03
-1.0048902e-02
-1.6161482e-02
-1.9671791e-02
-2.1135461e-02
-2.1043052e-02
-1.9523439e-02
-1.5984087e-02
-1.0217813e-02
-4.2566235e-03
7.2948411e-04
3.9236721e-03
5.8127108e-03
7.6594049e-03
9.1338070e-03
1.0018888e-02
9.8258331e-03
9.3147754e-03
9.6358437e-03
1.0391011e-02
1.1847938e-02
1.3808123e-02
1.6201376e-02
1.9657574e-02
2.3572301e-02
2.7429814e-02
3.1018491e-02
3.4163808e-02
3.6903877e-02
3.8612363e-02
3.7750220e-02
3.2991013e-02
2.4571389e-02
1.4126219e-02
4.1836107e-03
-3.6017794e-03
-9.6955811e-03
-1.4813899e-02
-1.9082812e-02
-2.2039356e-02
-2.3043007e-02
-2.3225216e-02
-2.3526400e-02
-2.3018971e-02
-2.0847592e-02
-1.6628774e-02
-1.1526625e-02
-6.4478043e-03
-1.1435722e-03
4.1117580e-03
9.2435047e-03
1.3469294e-02
1.6982231e-02
2.0308016e-02
2.2959724e-02
2.4695114e-02
2.4711390e-02
2.2504626e-02
1.8999778e-02
1.6701795e-02
1.6157760e-02
1.5282946e-02
1.3290296e-02
9.6911551e-03
4.7505357e-03
-3.7493847e-04
-5.8900719e-03
-1.1581114e-02
-1.6882074e-02
-2.1562541e-02
-2.5310058e-02
-2.8452586e-02
-3.1077957e-02
-3.2980691e-02
-3.4122790e-02
-3.4863465e-02
-3.6266301e-02
-3.7683924e-02
-3.7775215e-02
-3.6083436e-02
-3.2751310e-02
-2.8922025e-02
-2.3295765e-02
-1.4992312e-02
-6.2357966e-03
1.8719904e-03
9.2200036e-03
1.6096918e-02
2.1981421e-02
2.6874622e-02
3.2270743e-02
3.7637310e-02
4.1807902e-02
4.4235925e-02
4.4755073e-02
4.4242116e-02
4.2995811e-02
3.9992101e-02
3.3697568e-02
2.4585669e-02
1.4193679e-02
1.5626821e-03
-1.3643230e-02
-3.0380077e-02
-4.7552990e-02
-6.3347749e-02
-7.5407128e-02
-7.9965669e-02
-7.7256023e-02
-7.2559629e-02
-6.9750639e-02
-7.0290972e-02
-7.3180552e-02
-7.7072361e-02
-8.0990600e-02
-8.3855282e-02
-8.6257666e-02
-8.8540460e-02
-9.0237202e-02
-9.0401946e-02
-8.8078166e-02
-8.4062985e-02
-7.9184717e-02
-7.3686477e-02
-6.7455808e-02
-6.0011463e-02
-5.1414811e-02
-4.0840048e-02
-2.7636598e-02
-1.1897402e-02
6.3834364e-03
2.6840148e-02
5.0863850e-02
7.6398002e-02
9.7316712e-02
1.1157402e-01
1.1924976e-01
1.2120888e-01
1.1859855e-01
1.1336140e-01
1.0807674e-01
1.0235527e-01
9.6543021e-02
9.1159157e-02
8.5575426e-02
7.9781340e-02
7.3662660e-02
6.8684786e-02
6.5439986e-02
6.2419766e-02
5.8855352e-02
5.4961418e-02
5.1038495e-02
4.6033030e-02
3.9744634e-02
3.2834828e-02
2.5163528e-02
1.6638799e-02
7.5152886e-03
-1.4534852e-04
-5.2094817e-03
-8.3519928e-03
-9.2229577e-03
-8.0919994e-03
-5.7396465e-03
-2.4452001e-03
2.2581042e-03
9.8669033e-03
1.9222896e-02
2.8397986e-02
3.8069282e-02
4.8545356e-02
5.8345001e-02
6.5625224e-02
7.0331694e-02
7.3243245e-02
7.4847886e-02
7.5239614e-02
7.3189048e-02
6.7141671e-02
5.6371450e-02
4.0857838e-02
1.9071612e-02
-7.3908704e-03
-3.0403554e-02
-4.6267398e-02
-5.6659183e-02
-6.2603969e-02
-6.6061064e-02
-6.8492085e-02
-7.0360000e-02
-7.2019690e-02
-7.2476567e-02
-7.1423217e-02
-6.9766103e-02
-6.7863319e-02
-6.5708951e-02
-6.3979336e-02
-6.4016468e-02
-6.5546621e-02
-6.7727893e-02
-6.9618314e-02
-6.9870928e-02
-6.7657317e-02
-6.2069475e-02
-5.2870296e-02
-4.0349698e-02
-2.5096797e-02
-8.8628840e-03
5.7156728e-03
1.6945382e-02
2.4986341e-02
3.0256169e-02
3.3118920e-02
3.4731493e-02
3.4671121e-02
3.2175339e-02
2.8411464e-02
2.3972373e-02
1.8782003e-02
1.2507336e-02
5.9636466e-03
6.5757656e-05
-6.6088968e-03
-1.4099241e-02
-2.0956368e-02
-2.6098840e-02
-2.9332878e-02
-3.1429369e-02
-3.2077775e-02
-3.1288220e-02
-2.7884873e-02
-1.9709905e-02
-9.3948879e-03
-1.2214147e-03
3.9379155e-03
6.9408829e-03
7.9946122e-03
6.7738181e-03
4.1439734e-03
1.0159764e-03
-1.9878154e-03
-4.1346546e-03
-5.3473944e-03
-5.7116941e-03
-5.9915362e-03
-6.4606186e-03
-6.6076155e-03
-6.4324591e-03
-5.7265486e-03
-4.8798498e-03
-3.7042815e-03
-1.8961539e-03
-6.1365931e-04
1.1668898e-03
4.6025879e-03
9.8621382e-03
1.7625427e-02
2.5537424e-02
3.0266377e-02
3.0779698e-02
2.9314430e-02
2.8502531e-02
2.7181869e-02
2.4700977e-02
2.1551596e-02
1.8016958e-02
1.4700866e-02
1.1251658e-02
7.7643233e-03
4.8488103e-03
3.3836212e-03
3.6760144e-03
4.5384863e-03
5.3338537e-03
6.8577323e-03
1.0458154e-02
1.5425499e-02
1.9557001e-02
2.1999429e-02
2.1719109e-02
1.8515779e-02
1.3140919e-02
6.8446651e-03
2.6552467e-03
5.8328241e-04
-6.5561656e-04
5.7200293e-06
2.6359291e-03
5.9810643e-03
8.4416532e-03
1.0090067e-02
1.1732169e-02
1.2389042e-02
1.1932192e-02
1.1081664e-02
1.0488891e-02
1.0454423e-02
1.0478011e-02
1.0631791e-02
1.0551165e-02
1.0321951e-02
1.0100896e-02
9.5149857e-03
9.4689468e-03
1.0059198e-02
1.1372440e-02
1.4210059e-02
1.7908361e-02
2.0758761e-02
2.1811529e-02
2.2437787e-02
2.3048121e-02
2.3140555e-02
2.3202992e-02
2.2099427e-02
1.9672087e-02
1.6986696e-02
1.4157298e-02
1.1041566e-02
6.9132430e-03
2.2778630e-03
-1.8755073e-03
-5.9470238e-03
-1.0775974e-02
-1.7380526e-02
-2.5022955e-02
-3.2352362e-02
-3.9018366e-02
-4.3932475e-02
-4.7278505e-02
-4.9549760e-02
-4.9593805e-02
-4.7092259e-02
-4.3288983e-02
-4.0046134e-02
-3.7906788e-02
-3.6021629e-02
-3.3500980e-02
-3.0266342e-02
-2.7780629e-02
-2.6791972e-02
-2.6640636e-02
-2.6711914e-02
-2.6854100e-02
-2.7197535e-02
-2.7064151e-02
-2.6369889e-02
-2.5358480e-02
-2.3767483e-02
-2.1899302e-02
-1.9429161e-02
-1.6776255e-02
-1.4899877e-02
-1.3036813e-02
-9.8763201e-03
-3.4339203e-03
8.2256715e-03
2.2400702e-02
3.3466157e-02
3.9728539e-02
4.2711175e-02
4.3468501e-02
4.2607252e-02
4.0862415e-02
3.8769800e-02
3.6411473e-02
3.3389550e-02
3.0219878e-02
2.7672039e-02
2.5387051e-02
2.3412853e-02
2.1734864e-02
2.0261957e-02
1.8316193e-02
1.5490730e-02
1.3202450e-02
1.1310268e-02
8.9192878e-03
5.7620738e-03
1.6510609e-03
-3.0622597e-03
-9.3717818e-03
-1.7142184e-02
-2.3797397e-02
-2.8708756e-02
-3.2808418e-02
-3.5669091e-02
-3.6102440e-02
-3.3951526e-02
-2.9780463e-02
-2.3510198e-02
-1.5757009e-02
-7.8977578e-03
-1.1443559e-03
3.2465474e-03
5.7387797e-03
6.3920823e-03
4.6100123e-03
9.0992254e-04
-4.5091837e-03
-1.0594025e-02
-1.6408640e-02
-2.1081673e-02
-2.3888165e-02
-2.5287261e-02
-2.4054316e-02
-1.8555622e-02
-9.5363846e-03
3.5189800e-04
8.9491358e-03
1.6444631e-02
2.2935032e-02
2.8608939e-02
3.4064244e-02
3.8962994e-02
4.4419963e-02
5.0245179e-02
5.5274983e-02
6.0182822e-02
6.4793730e-02
6.8654706e-02
7.0966920e-02
7.2166954e-02
7.3544372e-02
7.3930981e-02
7.2500576e-02
6.9510971e-02
6.5402102e-02
5.9358514e-02
4.9193035e-02
3.5342100e-02
1.8365663e-02
-4.3595556e-04
-1.7062698e-02
-3.0214068e-02
-4.0387596e-02
-4.7932940e-02
-5.2666707e-02
-5.4580508e-02
-5.4999045e-02
-5.4129955e-02
-5.1811669e-02
-4.7791214e-02
-4.3638683e-02
-4.2039320e-02
-4.1868374e-02
-4.1764146e-02
-4.2285227e-02
-4.3903599e-02
-4.6362050e-02
-4.8194441e-02
-4.9912490e-02
-5.2849699e-02
-5.6060557e-02
-5.7733259e-02
-5.5388441e-02
-4.7355897e-02
-3.6408071e-02
-2.8198684e-02
-2.4396467e-02
-2.3057282e-02
-2.3176809e-02
-2.4212864e-02
-2.5662044e-02
-2.6260256e-02
-2.4684401e-02
-2.2661777e-02
-2.1787542e-02
-2.1328989e-02
-1.9957089e-02
-1.6601099e-02
-1.1807852e-02
-5.7385214e-03
1.0388641e-03
6.4112898e-03
1.0041262e-02
1.1835570e-02
1.1925839e-02
1.0909394e-02
7.6709796e-03
2.3791106e-03
